# Created by:        SpecsLab Prodigy, Version 4.91.3-r105809 
#
# XY-Serializer Export Settings:
#   Comment Prefix:           #
#   Output Meta Data:         yes
#   Energy Axis:              Binding Energy
#   Count Rate:               Counts per Second
#   Separate Scan Data:       no
#   Separate Channel Data:    no
#   External Channel Data:    yes
#   Transmission Function:    no
#   Error Bar:                no
#   Operation Results:        yes
#   Time Zone Format:         UTC
#
# Group:                        Spectrum Group
#
# Region:                       S (1)
# Spectrum ID:                  16
# Acquisition Date:             06/10/22 18:52:49 UTC
# Analysis Method:              XPS
# Analyzer Lens:                MediumArea:3.5kV
# Analyzer Slit:                5:7x20\B:open
# Scan Mode:                    FixedAnalyzerTransmission
# Curves/Scan:                  1
# Values/Curve:                 181
# Dwell Time:                   0.1
# Excitation Energy:            1486.71
# Binding Energy:               168
# Pass Energy:                  20
# Bias Voltage:                 90
# Detector Voltage:             1750
# Eff. Workfunction:            4.341
# Source:                       Focus
# Comment:                      5'irrad

# Cycle: 0
#
# Number of Scans: 30

# Cycle: 0, Curve: 0
#
# Acquisition Date:             06/10/22 18:52:49 UTC
# ColumnLabels:                 energy counts/s
#
168  11472.665
167.95  11398.411
167.9  11305.989
167.85  11386.837
167.8  11423.341
167.75  11421.004
167.7  11451.098
167.65  11376.213
167.6  11406.122
167.55  11469.764
167.5  11428.848
167.45  11491.379
167.4  11390.118
167.35  11350.829
167.3  11483.113
167.25  11374.57
167.2  11437.685
167.15  11467.558
167.1  11486.597
167.05  11509.165
167  11572.699
166.95  11435.096
166.9  11464.475
166.85  11542.295
166.8  11552.528
166.75  11573.36
166.7  11513.696
166.65  11573.603
166.6  11504.826
166.55  11593.347
166.5  11597.538
166.45  11470.597
166.4  11588.996
166.35  11511.57
166.3  11417.48
166.25  11538.081
166.2  11554.521
166.15  11625.562
166.1  11540.275
166.05  11671.238
166  11575.247
165.95  11563.492
165.9  11468.082
165.85  11653.118
165.8  11588.971
165.75  11621.783
165.7  11680.544
165.65  11674.806
165.6  11682.121
165.55  11694.696
165.5  11641.262
165.45  11665.916
165.4  11798.331
165.35  11708.556
165.3  11650.284
165.25  11830.518
165.2  11797.872
165.15  11813.805
165.1  11834.412
165.05  11786.654
165  11798.975
164.95  11778.555
164.9  11833.645
164.85  11884.221
164.8  11876.702
164.75  11962.087
164.7  11893.926
164.65  11843.089
164.6  11825.405
164.55  11753.536
164.5  11964.19
164.45  11882.092
164.4  11769.823
164.35  11817.424
164.3  11994.304
164.25  11903.027
164.2  11961.706
164.15  12062.767
164.1  12054.002
164.05  12040.96
164  12186.347
163.95  12128.97
163.9  12166.578
163.85  12165.919
163.8  12145.58
163.75  12203.111
163.7  12064.738
163.65  12144.592
163.6  12127.168
163.55  11983.556
163.5  12056.398
163.45  12093.127
163.4  12070.297
163.35  12089.533
163.3  11988.627
163.25  12062.121
163.2  12144.547
163.15  12010.633
163.1  12004.544
163.05  12094.279
163  12067.262
162.95  11971.737
162.9  12086.616
162.85  12043.268
162.8  12164.58
162.75  12173.236
162.7  12172.949
162.65  12016.668
162.6  11981.267
162.55  11924.293
162.5  11907.871
162.45  11857.903
162.4  11876.952
162.35  11810.335
162.3  11743.942
162.25  11591.369
162.2  11550.081
162.15  11580.973
162.1  11634.572
162.05  11566.499
162  11429.358
161.95  11457.328
161.9  11509.236
161.85  11485.221
161.8  11559.505
161.75  11516.411
161.7  11573.73
161.65  11487.08
161.6  11466.117
161.55  11552.222
161.5  11526.627
161.45  11570.16
161.4  11636.495
161.35  11512.21
161.3  11590.303
161.25  11634.31
161.2  11525.321
161.15  11606.212
161.1  11670.75
161.05  11541.521
161  11567.011
160.95  11611.267
160.9  11630.761
160.85  11530.233
160.8  11547.61
160.75  11608.918
160.7  11598.912
160.65  11526.435
160.6  11512.938
160.55  11573.583
160.5  11549.758
160.45  11618.624
160.4  11553.713
160.35  11583.596
160.3  11621.883
160.25  11678.654
160.2  11558.107
160.15  11620.13
160.1  11588.35
160.05  11687.358
160  11627.485
159.95  11644.988
159.9  11656.94
159.85  11687.505
159.8  11742.44
159.75  11660.483
159.7  11683.556
159.65  11598.32
159.6  11713.514
159.55  11690.283
159.5  11690.99
159.45  11649.03
159.4  11679.559
159.35  11569.356
159.3  11792
159.25  11764.845
159.2  11732.739
159.15  11742.157
159.1  11686.87
159.05  11791.899
159  11764.026

