# Created by:        SpecsLab Prodigy, Version 4.91.3-r105809 
#
# XY-Serializer Export Settings:
#   Comment Prefix:           #
#   Output Meta Data:         yes
#   Energy Axis:              Binding Energy
#   Count Rate:               Counts per Second
#   Separate Scan Data:       no
#   Separate Channel Data:    no
#   External Channel Data:    yes
#   Transmission Function:    no
#   Error Bar:                no
#   Operation Results:        yes
#   Time Zone Format:         UTC
#
# Group:                        Spectrum Group
#
# Region:                       O (2)
# Spectrum ID:                  25
# Acquisition Date:             06/10/22 20:09:37 UTC
# Analysis Method:              XPS
# Analyzer Lens:                MediumArea:3.5kV
# Analyzer Slit:                5:7x20\B:open
# Scan Mode:                    FixedAnalyzerTransmission
# Curves/Scan:                  1
# Values/Curve:                 241
# Dwell Time:                   0.1
# Excitation Energy:            1486.71
# Binding Energy:               539
# Pass Energy:                  20
# Bias Voltage:                 90
# Detector Voltage:             1750
# Eff. Workfunction:            4.341
# Source:                       Focus
# Comment:                      10'irrad

# Cycle: 0
#
# Number of Scans: 5

# Cycle: 0, Curve: 0
#
# Acquisition Date:             06/10/22 20:09:37 UTC
# ColumnLabels:                 energy counts/s
#
539  19834.827
538.95  19929.011
538.9  20362.172
538.85  19911.892
538.8  20005.528
538.75  19832.512
538.7  20086.997
538.65  20166.763
538.6  19982.646
538.55  19976.678
538.5  20131.743
538.45  19923.938
538.4  20057.348
538.35  20301.291
538.3  19862.715
538.25  20467.874
538.2  20272.702
538.15  20105.69
538.1  20295.557
538.05  20159.393
538  19968.65
537.95  20076.3
537.9  20460.871
537.85  20070.12
537.8  20126.17
537.75  20039.476
537.7  20019.425
537.65  19814.065
537.6  19731.978
537.55  19885.462
537.5  20096.027
537.45  19909.768
537.4  20025.007
537.35  19754.156
537.3  19690.402
537.25  19834
537.2  19948.055
537.15  20205.118
537.1  20110.282
537.05  20297.201
537  19962.942
536.95  20155.936
536.9  20044.864
536.85  20127.596
536.8  20198.623
536.75  20601.881
536.7  20404.551
536.65  20402.761
536.6  20213.864
536.55  20049.247
536.5  20264.223
536.45  20260.146
536.4  20469.362
536.35  20213.002
536.3  20671.09
536.25  20498.542
536.2  20436.626
536.15  20736.637
536.1  20825.667
536.05  20864.44
536  21083.726
535.95  21003.09
535.9  20979.405
535.85  21185.896
535.8  21263.904
535.75  21518.382
535.7  21978.827
535.65  22139.348
535.6  22536.372
535.55  22460.624
535.5  23167.904
535.45  23656.218
535.4  24496.346
535.35  24865.857
535.3  25273.006
535.25  25650.369
535.2  25984.406
535.15  26969.819
535.1  27278.984
535.05  28267.308
535  28782.712
534.95  29731.996
534.9  30316.446
534.85  31153.352
534.8  31845.047
534.75  32251.067
534.7  33069.369
534.65  33563.531
534.6  34420.323
534.55  34577.301
534.5  34651.868
534.45  35825.37
534.4  36033.09
534.35  35756.566
534.3  35868.732
534.25  35635.691
534.2  35461.474
534.15  34842.957
534.1  34494.397
534.05  34017.464
534  33069.171
533.95  32577.808
533.9  31840.03
533.85  31149.716
533.8  29873.309
533.75  29286.919
533.7  28708.331
533.65  27827.415
533.6  27473.034
533.55  26546.059
533.5  25701.674
533.45  25032.625
533.4  24578.455
533.35  24348.95
533.3  24079.744
533.25  23322.514
533.2  22914.402
533.15  22409.404
533.1  22435.796
533.05  22170.928
533  21792.432
532.95  21554.246
532.9  21504.783
532.85  21335.572
532.8  21083.569
532.75  20878.862
532.7  21049.631
532.65  20643.121
532.6  20697.5
532.55  20684.554
532.5  20674.8
532.45  20428.155
532.4  20341.123
532.35  20469.796
532.3  20177.292
532.25  19933.941
532.2  20073.332
532.15  20082.418
532.1  19870.835
532.05  20042.023
532  19974.245
531.95  20001.357
531.9  19802.103
531.85  19880.389
531.8  20064.688
531.75  19608.375
531.7  19511.388
531.65  19923.491
531.6  20212.41
531.55  19823.115
531.5  19571.784
531.45  19597.903
531.4  19613.62
531.35  19503.299
531.3  19513.741
531.25  19642.113
531.2  19806.474
531.15  19035.276
531.1  19476.688
531.05  19453.854
531  19418.672
530.95  19495.919
530.9  19142.272
530.85  19460.728
530.8  19933.727
530.75  19348.183
530.7  19440.022
530.65  19408.275
530.6  19178.257
530.55  19348.482
530.5  19314.699
530.45  19372.84
530.4  19078.893
530.35  19290.753
530.3  19047.405
530.25  19322.016
530.2  19285.48
530.15  19015.974
530.1  19158.698
530.05  19189.021
530  19290.739
529.95  19651.935
529.9  19527.008
529.85  19156.421
529.8  18807.901
529.75  19235.984
529.7  19321.472
529.65  19315.332
529.6  19280.79
529.55  19275.417
529.5  19295.364
529.45  19220.175
529.4  19188.929
529.35  18913.683
529.3  18932.261
529.25  19087.859
529.2  19343.548
529.15  19566.83
529.1  19209.885
529.05  19065.174
529  19047.287
528.95  19487.334
528.9  19122.241
528.85  18811.399
528.8  19163.945
528.75  19473.121
528.7  19349.434
528.65  19332.214
528.6  19432.194
528.55  19162.697
528.5  19166.127
528.45  19445.614
528.4  19085.439
528.35  19030.79
528.3  19395.087
528.25  18813.158
528.2  18555.51
528.15  19035.605
528.1  19230.375
528.05  19164.726
528  19044.958
527.95  19028.705
527.9  18746.35
527.85  18646.738
527.8  18989.584
527.75  19207.499
527.7  19089.459
527.65  19175.328
527.6  19355.541
527.55  19061.926
527.5  18911.971
527.45  19242.735
527.4  19104.024
527.35  19106.69
527.3  19128.154
527.25  19107.094
527.2  19462.55
527.15  19496.829
527.1  19291.02
527.05  19160.439
527  19044.836

