# Created by:        SpecsLab Prodigy, Version 4.91.3-r105809 
#
# XY-Serializer Export Settings:
#   Comment Prefix:           #
#   Output Meta Data:         yes
#   Energy Axis:              Binding Energy
#   Count Rate:               Counts per Second
#   Separate Scan Data:       no
#   Separate Channel Data:    no
#   External Channel Data:    yes
#   Transmission Function:    no
#   Error Bar:                no
#   Operation Results:        yes
#   Time Zone Format:         UTC
#
# Group:                        Spectrum Group
#
# Region:                       C (2)
# Spectrum ID:                  22
# Acquisition Date:             06/10/22 19:58:19 UTC
# Analysis Method:              XPS
# Analyzer Lens:                MediumArea:3.5kV
# Analyzer Slit:                5:7x20\B:open
# Scan Mode:                    FixedAnalyzerTransmission
# Curves/Scan:                  1
# Values/Curve:                 201
# Dwell Time:                   0.1
# Excitation Energy:            1486.71
# Binding Energy:               290
# Pass Energy:                  20
# Bias Voltage:                 90
# Detector Voltage:             1750
# Eff. Workfunction:            4.341
# Source:                       Focus
# Comment:                      10'irrad

# Cycle: 0
#
# Number of Scans: 6

# Cycle: 0, Curve: 0
#
# Acquisition Date:             06/10/22 19:58:19 UTC
# ColumnLabels:                 energy counts/s
#
290  9892.7222
289.95  9763.8383
289.9  9690.2667
289.85  9769.146
289.8  9763.6752
289.75  9820.3249
289.7  9850.0459
289.65  9830.3842
289.6  9671.8023
289.55  9622.0603
289.5  9573.7451
289.45  9745.14
289.4  9743.2022
289.35  10000.16
289.3  9950.6807
289.25  9799.9163
289.2  9741.421
289.15  9853.322
289.1  9797.2929
289.05  9826.7517
289  9727.0984
288.95  9792.3485
288.9  9955.2863
288.85  9683.64
288.8  9854.9381
288.75  9712.4018
288.7  9820.0255
288.65  10038.704
288.6  10076.633
288.55  9972.2685
288.5  10007.029
288.45  10165.175
288.4  10132.643
288.35  10101.202
288.3  10246.652
288.25  9961.578
288.2  10037.419
288.15  10262.448
288.1  10390.716
288.05  10305.669
288  10301.248
287.95  10385.885
287.9  10413.969
287.85  10428.368
287.8  10154.634
287.75  10298.17
287.7  10355.222
287.65  10339.833
287.6  10444.859
287.55  10522.332
287.5  10505.521
287.45  10322.132
287.4  10367.906
287.35  10555.323
287.3  10507.091
287.25  10521.773
287.2  10411.121
287.15  10470.506
287.1  10552.508
287.05  10653.211
287  10549.709
286.95  10694.428
286.9  10731.662
286.85  10633.634
286.8  10742.167
286.75  10857.183
286.7  10789.241
286.65  10876.997
286.6  10884.349
286.55  10913.744
286.5  10770.923
286.45  10567.337
286.4  10809.783
286.35  10888.332
286.3  11052.883
286.25  11163.818
286.2  10903.733
286.15  11092.921
286.1  11161.418
286.05  11222.897
286  11216.056
285.95  11136.391
285.9  11145.006
285.85  11001.717
285.8  11149.961
285.75  11120.467
285.7  10892.085
285.65  10982.805
285.6  10833.203
285.55  10874.405
285.5  10939.503
285.45  10624.186
285.4  10535.75
285.35  10701.842
285.3  10517.626
285.25  10192.173
285.2  10060.045
285.15  10035.454
285.1  10076.071
285.05  10108.606
285  9883.2817
284.95  9951.216
284.9  9747.4605
284.85  9538.1286
284.8  9768.3177
284.75  9668.4133
284.7  9699.0493
284.65  9576.1121
284.6  9681.7441
284.55  9748.9629
284.5  9630.8795
284.45  9545.4693
284.4  9653.7646
284.35  9468.0698
284.3  9561.4697
284.25  9626.2959
284.2  9397.4687
284.15  9641.9613
284.1  9578.5604
284.05  9482.9151
284  9417.8514
283.95  9628.3176
283.9  9725.0772
283.85  9540.263
283.8  9432.3141
283.75  9368.5101
283.7  9402.9774
283.65  9443.3082
283.6  9464.9998
283.55  9243.3213
283.5  9434.6191
283.45  9447.2018
283.4  9555.0275
283.35  9519.9826
283.3  9458.1615
283.25  9569.4223
283.2  9634.4774
283.15  9305.2285
283.1  9399.0292
283.05  9538.0227
283  9472.731
282.95  9422.1007
282.9  9635.2623
282.85  9338.1934
282.8  9591.7553
282.75  9559.8403
282.7  9642.6086
282.65  9465.9688
282.6  9313.1773
282.55  9515.7354
282.5  9732.3806
282.45  9544.8213
282.4  9449.8477
282.35  9421.5948
282.3  9448.9595
282.25  9543.0583
282.2  9584.5002
282.15  9465.612
282.1  9697.3825
282.05  9423.8546
282  9189.1471
281.95  9588.4565
281.9  9514.1831
281.85  9643.618
281.8  9609.6102
281.75  9624.5222
281.7  9389.8415
281.65  9322.1909
281.6  9449.2875
281.55  9653.6951
281.5  9572.8549
281.45  9440.2913
281.4  9660.6954
281.35  9755.9454
281.3  9518.3246
281.25  9575.8983
281.2  9716.4676
281.15  9694.8287
281.1  9416.0028
281.05  9559.5993
281  9497.0406
280.95  9457.4432
280.9  9379.9858
280.85  9479.9823
280.8  9333.3086
280.75  9419.8611
280.7  9477.7858
280.65  9479.9102
280.6  9553.1987
280.55  9566.7529
280.5  9391.5336
280.45  9405.173
280.4  9419.8325
280.35  9497.1047
280.3  9567.8671
280.25  9537.2049
280.2  9645.5087
280.15  9576.287
280.1  9356.7294
280.05  9568.0224
280  9573.1882

