# Created by:        SpecsLab Prodigy, Version 4.91.3-r105809 
#
# XY-Serializer Export Settings:
#   Comment Prefix:           #
#   Output Meta Data:         yes
#   Energy Axis:              Binding Energy
#   Count Rate:               Counts per Second
#   Separate Scan Data:       no
#   Separate Channel Data:    no
#   External Channel Data:    yes
#   Transmission Function:    no
#   Error Bar:                no
#   Operation Results:        yes
#   Time Zone Format:         UTC
#
# Group:                        Spectrum Group
#
# Region:                       S (3)
# Spectrum ID:                  26
# Acquisition Date:             06/10/22 20:23:11 UTC
# Analysis Method:              XPS
# Analyzer Lens:                MediumArea:3.5kV
# Analyzer Slit:                5:7x20\B:open
# Scan Mode:                    FixedAnalyzerTransmission
# Curves/Scan:                  1
# Values/Curve:                 181
# Dwell Time:                   0.1
# Excitation Energy:            1486.71
# Binding Energy:               168
# Pass Energy:                  20
# Bias Voltage:                 90
# Detector Voltage:             1750
# Eff. Workfunction:            4.341
# Source:                       Focus
# Comment:                      15'irrad

# Cycle: 0
#
# Number of Scans: 30

# Cycle: 0, Curve: 0
#
# Acquisition Date:             06/10/22 20:23:11 UTC
# ColumnLabels:                 energy counts/s
#
168  11392.559
167.95  11465.329
167.9  11455.476
167.85  11399.136
167.8  11432.775
167.75  11450.393
167.7  11438.387
167.65  11379.83
167.6  11345.218
167.55  11469.251
167.5  11481.3
167.45  11537.939
167.4  11475.502
167.35  11415.345
167.3  11377.74
167.25  11494.977
167.2  11429.76
167.15  11430.385
167.1  11396.847
167.05  11436.161
167  11449.684
166.95  11419.141
166.9  11347.668
166.85  11359.876
166.8  11347.58
166.75  11392.048
166.7  11385.302
166.65  11393.653
166.6  11489.262
166.55  11456.57
166.5  11522.674
166.45  11535.484
166.4  11500.06
166.35  11597.281
166.3  11550.008
166.25  11459.032
166.2  11461.672
166.15  11313.109
166.1  11452.455
166.05  11561.005
166  11479.998
165.95  11528.059
165.9  11517.087
165.85  11562.579
165.8  11626.068
165.75  11585.19
165.7  11645.817
165.65  11595.121
165.6  11663.687
165.55  11589.478
165.5  11630.581
165.45  11593.469
165.4  11606.594
165.35  11544.529
165.3  11576.439
165.25  11726.975
165.2  11711.77
165.15  11734.951
165.1  11632.634
165.05  11650.019
165  11769.905
164.95  11738.255
164.9  11770.87
164.85  11711.816
164.8  11798.041
164.75  11817.479
164.7  11749.696
164.65  11813.677
164.6  11849.861
164.55  11742.058
164.5  11784.28
164.45  11768.757
164.4  11818.643
164.35  11866.185
164.3  11862.808
164.25  11880.977
164.2  11851.667
164.15  11880.127
164.1  11838.573
164.05  11922.219
164  12183.54
163.95  12134.655
163.9  12098.641
163.85  12103.508
163.8  12081.287
163.75  12050.441
163.7  12014.776
163.65  12098.897
163.6  12051.206
163.55  11968.599
163.5  11913.464
163.45  12055.726
163.4  11936.541
163.35  11768.959
163.3  11819.503
163.25  11843.797
163.2  11900.487
163.15  11894.475
163.1  11965.254
163.05  12024.268
163  12037.53
162.95  11957.052
162.9  11950.796
162.85  12151.981
162.8  12125.345
162.75  12034.026
162.7  12069.84
162.65  12093.158
162.6  11984.786
162.55  11818.042
162.5  11828.693
162.45  11709.606
162.4  11671.542
162.35  11679.117
162.3  11577.592
162.25  11502.271
162.2  11587.002
162.15  11600.36
162.1  11609.59
162.05  11476.765
162  11383.504
161.95  11489.966
161.9  11341.194
161.85  11393.116
161.8  11480.028
161.75  11409.093
161.7  11443.62
161.65  11494.399
161.6  11530.775
161.55  11533.613
161.5  11454.165
161.45  11445.485
161.4  11550.223
161.35  11535.648
161.3  11458.895
161.25  11493.557
161.2  11440.855
161.15  11463.99
161.1  11466.579
161.05  11462.07
161  11454.599
160.95  11380.091
160.9  11465.107
160.85  11376.685
160.8  11494.698
160.75  11537.076
160.7  11428.766
160.65  11489.635
160.6  11530.366
160.55  11506.408
160.5  11525.336
160.45  11568.451
160.4  11589.501
160.35  11502.75
160.3  11485.262
160.25  11517.299
160.2  11532.381
160.15  11604.648
160.1  11508.589
160.05  11578.87
160  11532.29
159.95  11454.887
159.9  11568.94
159.85  11725.571
159.8  11740.415
159.75  11728.489
159.7  11556.982
159.65  11495.637
159.6  11605.806
159.55  11605.755
159.5  11659.506
159.45  11600.976
159.4  11542.326
159.35  11545.499
159.3  11492.651
159.25  11581.949
159.2  11563.375
159.15  11605.879
159.1  11622.33
159.05  11699.592
159  11792.786

