# Created by:        SpecsLab Prodigy, Version 4.91.3-r105809 
#
# XY-Serializer Export Settings:
#   Comment Prefix:           #
#   Output Meta Data:         yes
#   Energy Axis:              Binding Energy
#   Count Rate:               Counts per Second
#   Separate Scan Data:       no
#   Separate Channel Data:    no
#   External Channel Data:    yes
#   Transmission Function:    no
#   Error Bar:                no
#   Operation Results:        yes
#   Time Zone Format:         UTC
#
# Group:                        Spectrum Group
#
# Region:                       Au (0)
# Spectrum ID:                  13
# Acquisition Date:             06/10/22 18:25:39 UTC
# Analysis Method:              XPS
# Analyzer Lens:                MediumArea:3.5kV
# Analyzer Slit:                5:7x20\B:open
# Scan Mode:                    FixedAnalyzerTransmission
# Curves/Scan:                  1
# Values/Curve:                 281
# Dwell Time:                   0.1
# Excitation Energy:            1486.71
# Binding Energy:               94
# Pass Energy:                  20
# Bias Voltage:                 90
# Detector Voltage:             1750
# Eff. Workfunction:            4.341
# Source:                       Focus
# Comment:                      sin irradiar

# Cycle: 0
#
# Number of Scans: 5

# Cycle: 0, Curve: 0
#
# Acquisition Date:             06/10/22 18:25:39 UTC
# ColumnLabels:                 energy counts/s
#
94  9542.5653
93.95  9676.3531
93.9  9491.5267
93.85  9630.8996
93.8  9649.6262
93.75  9737.7312
93.7  9606.0726
93.65  9642.7381
93.6  9781.9758
93.55  9826.4826
93.5  9750.6734
93.45  9641.777
93.4  9815.5972
93.35  9897.111
93.3  9895.4725
93.25  9994.7086
93.2  10100.717
93.15  9934.1733
93.1  10000.938
93.05  10005.524
93  10012.545
92.95  10067.986
92.9  10320.065
92.85  10400.439
92.8  10408.91
92.75  10512.727
92.7  10327.539
92.65  10441.858
92.6  10684.305
92.55  10916.301
92.5  10527.256
92.45  10477.431
92.4  10625.626
92.35  10905.289
92.3  10717.89
92.25  10671.162
92.2  11125.736
92.15  11070.746
92.1  10977.873
92.05  11153.246
92  11063.044
91.95  10886.875
91.9  11004.185
91.85  11181.167
91.8  11232.942
91.75  11215.756
91.7  11371.076
91.65  11235.426
91.6  11291.698
91.55  11151.207
91.5  11523.725
91.45  11712.68
91.4  11698.289
91.35  11396.18
91.3  11301.473
91.25  11366.794
91.2  11537.377
91.15  11819.44
91.1  11840.727
91.05  12034.247
91  12137.795
90.95  12184.624
90.9  12472.387
90.85  12545.535
90.8  12781.923
90.75  13338.112
90.7  13528.76
90.65  13940.064
90.6  14305.803
90.55  14762.754
90.5  15302.359
90.45  15909.144
90.4  16491.715
90.35  17477.118
90.3  18397.828
90.25  19105.055
90.2  20611.992
90.15  22141.093
90.1  23803.72
90.05  25724.853
90  28142.334
89.95  30795.07
89.9  35493.068
89.85  40127.246
89.8  46120.129
89.75  53072.131
89.7  60178.967
89.65  68711.236
89.6  77629.808
89.55  87920.536
89.5  96554.04
89.45  105133.29
89.4  112608.9
89.35  118278.14
89.3  121292.41
89.25  121844.2
89.2  118548.53
89.15  112751.31
89.1  104234.07
89.05  93605.432
89  85179.918
88.95  76632.369
88.9  68471.205
88.85  61526.842
88.8  54469.656
88.75  48642.558
88.7  43437.011
88.65  38262.412
88.6  33880.001
88.55  29325.797
88.5  26279.233
88.45  23314.833
88.4  21023.486
88.35  19084.767
88.3  17483.795
88.25  16252.297
88.2  15578.333
88.15  14630.585
88.1  13917.182
88.05  13566.81
88  12911.039
87.95  12673.434
87.9  12489.108
87.85  12149.916
87.8  11805.64
87.75  11717.02
87.7  11633.848
87.65  11422.622
87.6  11271.684
87.55  11069.912
87.5  11147.775
87.45  11257.188
87.4  11305.809
87.35  11200.767
87.3  11518.483
87.25  11504.033
87.2  11701.503
87.15  11972.572
87.1  12246.447
87.05  12520.133
87  13133.766
86.95  13178.173
86.9  13541.198
86.85  14274.035
86.8  14926.492
86.75  15818.631
86.7  16811.139
86.65  17758.124
86.6  18850.473
86.55  20276.309
86.5  21926.559
86.45  24148.57
86.4  26332.714
86.35  29267.163
86.3  33958.454
86.25  38910.896
86.2  44208.493
86.15  51724.26
86.1  60343.126
86.05  70825.868
86  83171.772
85.95  95101.491
85.9  109529.21
85.85  123832.25
85.8  137077.81
85.75  148840.7
85.7  157394.91
85.65  161985.9
85.6  163565.47
85.55  160435.63
85.5  151310.6
85.45  137995.22
85.4  121764.4
85.35  104375.56
85.3  86915.524
85.25  71460.054
85.2  59523.138
85.15  49249.443
85.1  40687.612
85.05  33632.781
85  28119.059
84.95  24164.601
84.9  20753.718
84.85  17572.481
84.8  15681.138
84.75  13765.45
84.7  12369.246
84.65  11522.902
84.6  10423.502
84.55  9502.8695
84.5  8941.5248
84.45  8233.7469
84.4  8092.0317
84.35  7631.8385
84.3  7273.6944
84.25  7022.7875
84.2  6491.6981
84.15  6417.5746
84.1  6031.1328
84.05  6147.1732
84  5755.1568
83.95  5609.9033
83.9  5327.87
83.85  5033.717
83.8  4846.6199
83.75  4926.0366
83.7  4838.6519
83.65  4760.6953
83.6  4630.8958
83.55  4473.5776
83.5  4334.3621
83.45  4103.3845
83.4  4200.6572
83.35  4194.0743
83.3  4060.1653
83.25  4138.7024
83.2  4103.1052
83.15  3844.931
83.1  3821.2559
83.05  3706.958
83  3637.3089
82.95  3577.0517
82.9  3557.247
82.85  3455.5199
82.8  3355.0886
82.75  3386.9784
82.7  3429.8083
82.65  3461.8228
82.6  3341.8652
82.55  3298.9823
82.5  3248.8092
82.45  3264.4927
82.4  3208.8502
82.35  3349.9627
82.3  3240.3186
82.25  3137.8083
82.2  3235.3485
82.15  3093.2002
82.1  3136.0787
82.05  3026.1807
82  2974.043
81.95  3194.9109
81.9  3132.0879
81.85  3009.9849
81.8  2922.5913
81.75  2968.9279
81.7  2989.5607
81.65  2992.6291
81.6  2945.6352
81.55  3066.9281
81.5  3008.1266
81.45  2984.1405
81.4  2964.2256
81.35  2898.7403
81.3  2910.4826
81.25  2946.6315
81.2  2929.8062
81.15  2965.738
81.1  2953.6743
81.05  2879.539
81  2931.4667
80.95  2861.2227
80.9  2908.2403
80.85  2939.4845
80.8  2839.7413
80.75  2734.2991
80.7  2785.4205
80.65  2916.8852
80.6  2800.3079
80.55  2941.8096
80.5  2807.233
80.45  2778.3449
80.4  2826.5864
80.35  2826.0718
80.3  2794.5765
80.25  2923.1166
80.2  2684.0948
80.15  2701.8517
80.1  2801.2833
80.05  2757.1323
80  2662.8844

