# Created by:        SpecsLab Prodigy, Version 4.91.3-r105809 
#
# XY-Serializer Export Settings:
#   Comment Prefix:           #
#   Output Meta Data:         yes
#   Energy Axis:              Binding Energy
#   Count Rate:               Counts per Second
#   Separate Scan Data:       no
#   Separate Channel Data:    no
#   External Channel Data:    yes
#   Transmission Function:    yes
#   Error Bar:                no
#   Operation Results:        yes
#   Time Zone Format:         UTC
#
# Group:                        Spectrum Group
#
# Region:                       Survey (0)
# Spectrum ID:                  10
# Acquisition Date:             06/10/22 17:57:25 UTC
# Analysis Method:              XPS
# Analyzer Lens:                MediumArea:3.5kV
# Analyzer Slit:                5:7x20\B:open
# Scan Mode:                    FixedAnalyzerTransmission
# Curves/Scan:                  1
# Values/Curve:                 1103
# Dwell Time:                   0.1
# Excitation Energy:            1486.71
# Binding Energy:               1100
# Pass Energy:                  30
# Bias Voltage:                 90
# Detector Voltage:             1750
# Eff. Workfunction:            4.341
# Source:                       Focus
# Comment:                      sin irradiar

# Cycle: 0
#
# Number of Scans: 1

# Cycle: 0, Curve: 0
#
# Acquisition Date:             06/10/22 17:57:25 UTC
# ColumnLabels:                 energy counts/s transmission
#
1100  34533.572  1
1099  33984.171  1
1098  34245.547  1
1097  33659.289  1
1096  32693.303  1
1095  33502.442  1
1094  33718.802  1
1093  33730.358  1
1092  33934.206  1
1091  33783.608  1
1090  33947.804  1
1089  34150.557  1
1088  32889.32  1
1087  33950.527  1
1086  32624.609  1
1085  32863.02  1
1084  33697.834  1
1083  34159.85  1
1082  32125.301  1
1081  33661.115  1
1080  33573.18  1
1079  33081.01  1
1078  32927.971  1
1077  32452.098  1
1076  33413.824  1
1075  33182.884  1
1074  32794.762  1
1073  33573.611  1
1072  35260.94  1
1071  33816.881  1
1070  33404.745  1
1069  33129.609  1
1068  34285.551  1
1067  33840.12  1
1066  33624.325  1
1065  33880.017  1
1064  33536.731  1
1063  34699.473  1
1062  34858.69  1
1061  34134.166  1
1060  34006.212  1
1059  34107.69  1
1058  34315.301  1
1057  34467.402  1
1056  34097.205  1
1055  33234.141  1
1054  32922.675  1
1053  33824.881  1
1052  33683.258  1
1051  34373.503  1
1050  35107.343  1
1049  35595.991  1
1048  33981.404  1
1047  35166.819  1
1046  35212.448  1
1045  34974.426  1
1044  33260.262  1
1043  33762.632  1
1042  35084.588  1
1041  34819.97  1
1040  35504.219  1
1039  35448.085  1
1038  34524.483  1
1037  35090.418  1
1036  34756.307  1
1035  35422.58  1
1034  34314.547  1
1033  34067.506  1
1032  36319.943  1
1031  35082.61  1
1030  34639.446  1
1029  34302.397  1
1028  34455.388  1
1027  35305.618  1
1026  35859.787  1
1025  35516.773  1
1024  35826.14  1
1023  35826.206  1
1022  35576.862  1
1021  36056.827  1
1020  34990.889  1
1019  34161.833  1
1018  35748.38  1
1017  35663.615  1
1016  35625.812  1
1015  34548.959  1
1014  35308.409  1
1013  35000.415  1
1012  36080.735  1
1011  36229.551  1
1010  35432.401  1
1009  35590.345  1
1008  35794.834  1
1007  36227.2  1
1006  36392.881  1
1005  34870.481  1
1004  36620.051  1
1003  36455.973  1
1002  38090.527  1
1001  37027.171  1
1000  36255.633  1
999  35507.42  1
998  36894.25  1
997  36071.808  1
996  37195.618  1
995  36018.004  1
994  36253.382  1
993  35529.989  1
992  36573.93  1
991  35700.997  1
990  35934.457  1
989  36101.613  1
988  37198.995  1
987  36845.163  1
986  36067.906  1
985  36947.051  1
984  36646.239  1
983  38877.617  1
982  38939.437  1
981  39306.843  1
980  41248.566  1
979  39605.357  1
978  38382.529  1
977  37762.536  1
976  37253.728  1
975  37472.522  1
974  36371.821  1
973  35734.386  1
972  36285.039  1
971  35797.127  1
970  35838.898  1
969  34951.83  1
968  36101.612  1
967  35846.263  1
966  34576.953  1
965  34159.72  1
964  34280.67  1
963  34750.708  1
962  34695.865  1
961  34517.271  1
960  34840.918  1
959  34335.482  1
958  35872.784  1
957  34520.166  1
956  34409.465  1
955  34127.44  1
954  34464.841  1
953  33846.705  1
952  33745.42  1
951  33991.968  1
950  34879.119  1
949  35080.741  1
948  34603.824  1
947  34151.62  1
946  35211.825  1
945  35698.53  1
944  35055.298  1
943  33974.443  1
942  34748.854  1
941  35606.784  1
940  35723.946  1
939  36462.244  1
938  36140.668  1
937  35153.438  1
936  34447.475  1
935  35984.182  1
934  36313.693  1
933  35530.37  1
932  35378.071  1
931  35421.255  1
930  36077.251  1
929  35639.701  1
928  35463.537  1
927  35203.635  1
926  34723.799  1
925  35602.2  1
924  35641.915  1
923  35292.688  1
922  35756.459  1
921  35819.834  1
920  35464.033  1
919  35273.294  1
918  36026.351  1
917  36118.51  1
916  35356.102  1
915  36379.384  1
914  36313.064  1
913  36856.096  1
912  37671.092  1
911  36807.392  1
910  36468.321  1
909  36307.505  1
908  35594.791  1
907  36929.421  1
906  37008.279  1
905  36477.853  1
904  35648.768  1
903  37696.293  1
902  37035.064  1
901  36291.66  1
900  36358.337  1
899  35400.567  1
898  35826.914  1
897  35746.766  1
896  36028.391  1
895  35787.044  1
894  36902.352  1
893  36886.24  1
892  36284.242  1
891  36863.525  1
890  36936.771  1
889  36860.863  1
888  36216.087  1
887  37849.404  1
886  37347.173  1
885  36825.256  1
884  36441.593  1
883  36646.118  1
882  37694.461  1
881  37556.65  1
880  36622.907  1
879  37233.277  1
878  37038.403  1
877  38001.306  1
876  37560.819  1
875  37063.543  1
874  36859.269  1
873  37209.492  1
872  38573.99  1
871  37994.296  1
870  38390.427  1
869  36816.257  1
868  37299.533  1
867  38335.309  1
866  36164.947  1
865  37606.401  1
864  38691.939  1
863  38543.301  1
862  37195.845  1
861  37284.637  1
860  37503.563  1
859  37599.73  1
858  36935.21  1
857  37293.759  1
856  37955.582  1
855  38544.084  1
854  38311.895  1
853  37906.092  1
852  37452.058  1
851  37322.876  1
850  37801.611  1
849  37648.573  1
848  38283.128  1
847  37285.881  1
846  39136.994  1
845  37828.468  1
844  38773.828  1
843  38468.339  1
842  38276.53  1
841  38636.381  1
840  40039.897  1
839  40235.399  1
838  39108.135  1
837  39534.19  1
836  39381.994  1
835  39354.106  1
834  38695.52  1
833  39448.304  1
832  40023.372  1
831  39005.935  1
830  39210.004  1
829  38479.129  1
828  38791.461  1
827  39403.27  1
826  39670.807  1
825  38537.832  1
824  39244.998  1
823  39098.506  1
822  40316.115  1
821  41065.81  1
820  40207.917  1
819  39244.951  1
818  39868.681  1
817  40090.675  1
816  40871.19  1
815  40516.855  1
814  39571.117  1
813  39859.316  1
812  40137.772  1
811  39761.545  1
810  40489.797  1
809  40809.949  1
808  40884.513  1
807  40287.437  1
806  41005.384  1
805  40186.543  1
804  40435.708  1
803  41597.818  1
802  41664.549  1
801  40363.531  1
800  40269.243  1
799  41870.772  1
798  41233.581  1
797  41000.17  1
796  40285.79  1
795  39938.647  1
794  42495.583  1
793  42272.395  1
792  42460.636  1
791  40865.523  1
790  40745.044  1
789  41293.566  1
788  40560.458  1
787  41549.122  1
786  41714.661  1
785  42042.837  1
784  40661.919  1
783  41489.019  1
782  41834.006  1
781  41645.12  1
780  41946.271  1
779  41268.146  1
778  41769.729  1
777  42246.058  1
776  42325.807  1
775  41992.09  1
774  40854.571  1
773  41524.736  1
772  41564.746  1
771  42216.988  1
770  42004.954  1
769  41769.854  1
768  42837.843  1
767  42308.531  1
766  43275.793  1
765  44162.013  1
764  43431.385  1
763  44817.652  1
762  44429.014  1
761  42835.652  1
760  43593.646  1
759  42365.951  1
758  43064.452  1
757  41853.706  1
756  42000.899  1
755  41642.229  1
754  41528.182  1
753  42399.603  1
752  42309.199  1
751  41861.103  1
750  40716.121  1
749  41251.924  1
748  41202.171  1
747  40761.497  1
746  40959.423  1
745  40445.217  1
744  40883.976  1
743  41691.439  1
742  40933.938  1
741  41286.206  1
740  41418.544  1
739  41618.39  1
738  41421.572  1
737  41547.171  1
736  42501.336  1
735  41636.532  1
734  41279.323  1
733  41329.349  1
732  42217.666  1
731  42754.451  1
730  41892.168  1
729  40755.661  1
728  41655.635  1
727  41248.748  1
726  42305.74  1
725  42078.07  1
724  42351.369  1
723  42140.158  1
722  42437.322  1
721  42807.824  1
720  43293.692  1
719  42761.507  1
718  43843.266  1
717  42166.315  1
716  42684.927  1
715  42301.478  1
714  42462.952  1
713  41825.47  1
712  41888.838  1
711  43044.927  1
710  43461.937  1
709  43208.261  1
708  43589.849  1
707  42680.181  1
706  42831.603  1
705  44242.639  1
704  44115.009  1
703  43093.385  1
702  43813.885  1
701  45480.538  1
700  44427.738  1
699  43923.767  1
698  44690.683  1
697  44171.717  1
696  44569.027  1
695  43930.831  1
694  43423.213  1
693  45496.12  1
692  44303.873  1
691  44738.838  1
690  44905.24  1
689  45054.432  1
688  45912.372  1
687  45191.44  1
686  44346.553  1
685  44491.148  1
684  45144.264  1
683  43618.657  1
682  44922.303  1
681  44698.715  1
680  44027  1
679  44349.455  1
678  44447.79  1
677  44848.621  1
676  44650.7  1
675  44667.905  1
674  45124.325  1
673  45212.429  1
672  45149.589  1
671  45357.73  1
670  46262.742  1
669  45442.84  1
668  45052.463  1
667  44555.258  1
666  46463.588  1
665  46331.252  1
664  46374.524  1
663  45646.268  1
662  46787.573  1
661  47055.33  1
660  46093.701  1
659  45627.347  1
658  45628.962  1
657  44139.358  1
656  46028.361  1
655  46049.507  1
654  45348.615  1
653  45695.5  1
652  46099.441  1
651  47004.424  1
650  47555.394  1
649  46935.253  1
648  48222.194  1
647  47926.68  1
646  48838.436  1
645  49098.272  1
644  50784.326  1
643  51132.009  1
642  49413.784  1
641  48414.113  1
640  48702.866  1
639  48228.727  1
638  47835.779  1
637  46105.781  1
636  46118.218  1
635  45733.891  1
634  44992.876  1
633  44684.567  1
632  44685.406  1
631  44949.41  1
630  44694.526  1
629  44276.617  1
628  46422.944  1
627  45175.212  1
626  44815.047  1
625  43954.956  1
624  45671.124  1
623  45203.404  1
622  44908.676  1
621  45785.131  1
620  45640.276  1
619  45116.749  1
618  45574.395  1
617  46273.571  1
616  46450.803  1
615  45676.558  1
614  44828.513  1
613  45966.171  1
612  46224.48  1
611  46119.28  1
610  44993.923  1
609  46141.788  1
608  47018.825  1
607  46717.154  1
606  45854.432  1
605  47430.089  1
604  47472.109  1
603  46728.524  1
602  46335.646  1
601  47062.421  1
600  46797.221  1
599  47145.552  1
598  46833.061  1
597  47196.108  1
596  47161.328  1
595  46167.234  1
594  46879.435  1
593  46506.172  1
592  45872.562  1
591  48135.222  1
590  47517.623  1
589  47305.352  1
588  46598.647  1
587  46856.229  1
586  46965.009  1
585  48164.543  1
584  49027.24  1
583  48759.439  1
582  48450.77  1
581  48297.22  1
580  49391.822  1
579  49289.083  1
578  48916.564  1
577  49142.754  1
576  50014.807  1
575  50245.613  1
574  47269.927  1
573  49060.162  1
572  50153.156  1
571  49762.863  1
570  48915.324  1
569  49938.002  1
568  50711.525  1
567  48665.008  1
566  49404.577  1
565  49743.544  1
564  49253.416  1
563  48435.664  1
562  48349.255  1
561  50043.958  1
560  49949.555  1
559  49796.07  1
558  49627.204  1
557  49772.1  1
556  49599.089  1
555  50490.279  1
554  51022.403  1
553  50279.295  1
552  52213.929  1
551  55156.985  1
550  59355.082  1
549  62458.472  1
548  66068.424  1
547  67529.267  1
546  60961.974  1
545  55321.384  1
544  51263.94  1
543  48127.193  1
542  46807.287  1
541  44806.028  1
540  43598.092  1
539  44045.343  1
538  43855.516  1
537  44096.218  1
536  45275.798  1
535  55756.57  1
534  71998.003  1
533  57344.995  1
532  45918.711  1
531  42716.895  1
530  42326.225  1
529  41315.118  1
528  40980.833  1
527  40131.126  1
526  40693.652  1
525  41214.875  1
524  40190.579  1
523  40198.426  1
522  41054.72  1
521  42252.966  1
520  40713.526  1
519  40869.454  1
518  41421.533  1
517  42108.968  1
516  42255.828  1
515  41624.023  1
514  40886.28  1
513  40529.426  1
512  40993.84  1
511  41697.15  1
510  41625.184  1
509  41930.25  1
508  41312.727  1
507  41309.744  1
506  42674.945  1
505  41511.412  1
504  41420.127  1
503  42625.721  1
502  42689.572  1
501  42358.44  1
500  42714.786  1
499  42453.6  1
498  43058.599  1
497  42012.914  1
496  41955.88  1
495  42721.532  1
494  42465.762  1
493  42624.085  1
492  43242.283  1
491  43155.731  1
490  41996.437  1
489  42507.378  1
488  42477.629  1
487  42644.458  1
486  42624.287  1
485  42904.823  1
484  42341.885  1
483  44369.549  1
482  42477.518  1
481  43073.201  1
480  43072.256  1
479  43146.023  1
478  42903.101  1
477  43602.5  1
476  43091.333  1
475  44452.426  1
474  43218.627  1
473  42738.056  1
472  43010.883  1
471  44268.568  1
470  43620.011  1
469  43048.27  1
468  43946.3  1
467  43848.448  1
466  43117.39  1
465  44164.908  1
464  44120.01  1
463  43960.866  1
462  43302.974  1
461  44879.372  1
460  45238.188  1
459  44229.89  1
458  43890.261  1
457  45262.066  1
456  44401.044  1
455  44121.157  1
454  45321.885  1
453  44480.409  1
452  43983.514  1
451  45032.501  1
450  45017.242  1
449  43911.676  1
448  45218.803  1
447  45355.647  1
446  45317.133  1
445  44467.763  1
444  45019.679  1
443  46482.095  1
442  46549.588  1
441  46273.766  1
440  45888.778  1
439  46921.896  1
438  46424.276  1
437  46393.94  1
436  45684.905  1
435  46820.99  1
434  47510.678  1
433  46719.339  1
432  45885.212  1
431  46583.728  1
430  46720.428  1
429  47211.073  1
428  46239.793  1
427  47332.368  1
426  47767.05  1
425  47263.689  1
424  46627.863  1
423  46397.873  1
422  46192.701  1
421  46662.321  1
420  46539.402  1
419  46795.631  1
418  47209.936  1
417  48102.659  1
416  48866.582  1
415  49310.62  1
414  48830.698  1
413  48136.483  1
412  48086.487  1
411  47934.468  1
410  48996.099  1
409  47975.664  1
408  47034.123  1
407  48025.806  1
406  47750.296  1
405  49356.282  1
404  49995.667  1
403  48928.749  1
402  49393.2  1
401  48546.637  1
400  50639.967  1
399  51412.174  1
398  51690.767  1
397  50710.971  1
396  49781.521  1
395  50619.448  1
394  51621.87  1
393  50975.111  1
392  50760.686  1
391  52149.952  1
390  50835.489  1
389  49526.055  1
388  50097.955  1
387  50638.388  1
386  52029.971  1
385  52155.673  1
384  50569.453  1
383  52102.288  1
382  52421.88  1
381  52600.448  1
380  51871.122  1
379  52262.468  1
378  51960.138  1
377  51886.521  1
376  52286.203  1
375  53030.51  1
374  51249.017  1
373  52243.391  1
372  51684.108  1
371  52273.194  1
370  52734.979  1
369  52940.185  1
368  51978.657  1
367  51777.931  1
366  53150.774  1
365  51958.36  1
364  51872.663  1
363  52634.919  1
362  53290.556  1
361  54164.692  1
360  55761.738  1
359  57280.667  1
358  60795.879  1
357  67948.73  1
356  77215.275  1
355  86950.059  1
354  86542.654  1
353  75535.64  1
352  62428.24  1
351  53931.934  1
350  49134.716  1
349  46334.619  1
348  43889.16  1
347  41467.343  1
346  40967.174  1
345  40517.309  1
344  41554.491  1
343  41477.325  1
342  42785.143  1
341  46662.826  1
340  52996.606  1
339  62262.586  1
338  77479.711  1
337  94528.015  1
336  95223.994  1
335  76401.732  1
334  57250.48  1
333  43378.325  1
332  37208.822  1
331  32129.598  1
330  29952.006  1
329  27772.79  1
328  26056.636  1
327  26199.754  1
326  25574.538  1
325  24022.71  1
324  24215.311  1
323  23675.508  1
322  22962.736  1
321  23127.681  1
320  23294.305  1
319  24216.425  1
318  23519.559  1
317  23532.35  1
316  22113.028  1
315  21742.444  1
314  23583.988  1
313  23328.663  1
312  22050.28  1
311  22794.735  1
310  22753.137  1
309  21766.545  1
308  21895.903  1
307  22058.943  1
306  22419.659  1
305  21981.881  1
304  22967.562  1
303  23548.124  1
302  22915.8  1
301  22446.197  1
300  22603.039  1
299  22044.168  1
298  22437.097  1
297  22912.501  1
296  22807.046  1
295  22606.076  1
294  22474.493  1
293  22183.005  1
292  23252.601  1
291  22634.682  1
290  22572.228  1
289  23011.795  1
288  23574.385  1
287  24743.036  1
286  25617.405  1
285  24669.425  1
284  22112.934  1
283  22197.159  1
282  22434.125  1
281  22371.348  1
280  22930.292  1
279  22997.504  1
278  22177.296  1
277  22030.478  1
276  22112.562  1
275  22326.311  1
274  22486.256  1
273  23452.773  1
272  23048.499  1
271  21977.151  1
270  22168.123  1
269  21728.231  1
268  22585.148  1
267  22334.691  1
266  21971.254  1
265  23065.082  1
264  22101.976  1
263  22857.174  1
262  22894.547  1
261  22452.911  1
260  22886.212  1
259  23198.655  1
258  23502.984  1
257  22492.295  1
256  22941.082  1
255  22781.753  1
254  23338.066  1
253  23082.016  1
252  23304.84  1
251  22642.243  1
250  22597.948  1
249  23571.566  1
248  24554.175  1
247  24495.163  1
246  23263.601  1
245  23501.3  1
244  23975.635  1
243  23682.973  1
242  22794.111  1
241  23844.083  1
240  23420.7  1
239  23383.828  1
238  23518.554  1
237  22718.353  1
236  23293.762  1
235  23501.214  1
234  24051.413  1
233  24190.609  1
232  23816.381  1
231  24004.36  1
230  24173.611  1
229  24744.625  1
228  23944.875  1
227  24241.37  1
226  23330.716  1
225  24039.658  1
224  24569.673  1
223  23795.683  1
222  23900.102  1
221  24262.11  1
220  23808.01  1
219  23642.013  1
218  24487.892  1
217  25039.987  1
216  24691.168  1
215  24025.167  1
214  24435.389  1
213  23609.27  1
212  24434.946  1
211  24222.099  1
210  23973.574  1
209  24878.221  1
208  24835.144  1
207  25046.31  1
206  25305.471  1
205  25229.069  1
204  25281.116  1
203  24920.775  1
202  25112.232  1
201  25055.223  1
200  24558.01  1
199  25098.109  1
198  24707.71  1
197  24756.507  1
196  24306.115  1
195  24552.004  1
194  24985.422  1
193  25670.486  1
192  25825.509  1
191  25354.713  1
190  25135.57  1
189  26149.119  1
188  26786.239  1
187  26092.446  1
186  25379.167  1
185  26504.06  1
184  25920.013  1
183  26310.963  1
182  25432.256  1
181  26587.496  1
180  26711.749  1
179  25860.004  1
178  25863.519  1
177  27106.082  1
176  26458.439  1
175  26353.697  1
174  26318.739  1
173  26498.896  1
172  27095.987  1
171  26520.959  1
170  26018.457  1
169  26897.611  1
168  27052.708  1
167  26578.065  1
166  26897.504  1
165  27352.479  1
164  28020.714  1
163  27579.63  1
162  27084.251  1
161  26909.171  1
160  26161.012  1
159  26262.095  1
158  28200.866  1
157  29425.4  1
156  30327.815  1
155  29183.06  1
154  28175.642  1
153  27299.676  1
152  29125.9  1
151  28242.729  1
150  28351.394  1
149  27964.049  1
148  27774.289  1
147  27936.064  1
146  27861.761  1
145  28060.612  1
144  27878.722  1
143  27994.092  1
142  28250.311  1
141  29248.06  1
140  28393.8  1
139  27886.501  1
138  28629.227  1
137  28968.461  1
136  28891.959  1
135  29330.058  1
134  29096.439  1
133  30005.706  1
132  30301.426  1
131  29811.835  1
130  29425.274  1
129  29548.008  1
128  29368.086  1
127  30459.812  1
126  31025.958  1
125  30019.543  1
124  30715.555  1
123  31147.063  1
122  30769.784  1
121  30126.17  1
120  30217.968  1
119  30495.32  1
118  30119.829  1
117  31077.435  1
116  32613.268  1
115  32564.6  1
114  32633.599  1
113  32677.751  1
112  31817.485  1
111  32330.056  1
110  32482.743  1
109  31411.298  1
108  31070.375  1
107  31867.448  1
106  31970.415  1
105  33116.342  1
104  29877.372  1
103  28596.713  1
102  29694.74  1
101  28899.401  1
100  27437.072  1
99  25742.669  1
98  24971.513  1
97  23943.25  1
96  23896.965  1
95  24044.443  1
94  22616.902  1
93  23050.465  1
92  25091.331  1
91  29959.369  1
90  83847.027  1
89  174207.48  1
88  45296.656  1
87  32873.731  1
86  158321.46  1
85  166866.07  1
84  19978.492  1
83  9447.5185  1
82  6753.9334  1
81  6483.951  1
80  6409.8506  1
79  6125.1824  1
78  6153.4015  1
77  6332.8911  1
76  6872.0599  1
75  6725.7046  1
74  6289.2039  1
73  5991.5058  1
72  5646.0642  1
71  5583.0389  1
70  5112.9844  1
69  4647.2763  1
68  5125.0786  1
67  4820.4039  1
66  4944.9176  1
65  4754.5014  1
64  5286.6366  1
63  5760.3317  1
62  6174.8806  1
61  7342.3003  1
60  8853.2463  1
59  9266.527  1
58  9159.2702  1
57  7867.284  1
56  6495.0118  1
55  5903.8107  1
54  4978.5721  1
53  3980.3655  1
52  4008.5741  1
51  3503.0235  1
50  3675.8548  1
49  3566.61  1
48  3429.2262  1
47  3324.5098  1
46  3259.1448  1
45  3441.9011  1
44  2660.7939  1
43  3155.3139  1
42  3187.5445  1
41  2647.2425  1
40  2718.2942  1
39  3130.684  1
38  3378.5654  1
37  3029.6597  1
36  3177.1003  1
35  3055.4371  1
34  3109.3584  1
33  3053.5853  1
32  3075.9149  1
31  3150.9557  1
30  3536.691  1
29  3764.4989  1
28  3601.7889  1
27  3479.5084  1
26  3403.802  1
25  2952.1632  1
24  2795.2326  1
23  2657.9071  1
22  3017.6501  1
21  2740.0879  1
20  2936.8496  1
19  2742.6241  1
18  2498.937  1
17  2597.326  1
16  2504.031  1
15  2568.0138  1
14  2297.51  1
13  2436.9444  1
12  2407.4562  1
11  2503.2596  1
10  4057.1452  1
9  9297.5202  1
8  14286.818  1
7  12727.996  1
6  13091.266  1
5  15943.426  1
4  13516.27  1
3  4265.3888  1
2  1685.2598  1
1  392.06723  1
0  26.4766  1
-1  24.92519  1
-2  29.58976  1

# Region:                       S (0)
# Spectrum ID:                  11
# Acquisition Date:             06/10/22 18:06:02 UTC
# Analysis Method:              XPS
# Analyzer Lens:                MediumArea:3.5kV
# Analyzer Slit:                5:7x20\B:open
# Scan Mode:                    FixedAnalyzerTransmission
# Curves/Scan:                  1
# Values/Curve:                 181
# Dwell Time:                   0.1
# Excitation Energy:            1486.71
# Binding Energy:               168
# Pass Energy:                  20
# Bias Voltage:                 90
# Detector Voltage:             1750
# Eff. Workfunction:            4.341
# Source:                       Focus
# Comment:                      sin irradiar

# Cycle: 0
#
# Number of Scans: 30

# Cycle: 0, Curve: 0
#
# Acquisition Date:             06/10/22 18:06:02 UTC
# ColumnLabels:                 energy counts/s transmission
#
168  11423.928  1
167.95  11415.416  1
167.9  11470.244  1
167.85  11592.584  1
167.8  11492.805  1
167.75  11458.803  1
167.7  11476.336  1
167.65  11448.171  1
167.6  11498.444  1
167.55  11501.44  1
167.5  11496.929  1
167.45  11544.771  1
167.4  11531.767  1
167.35  11501.999  1
167.3  11551.773  1
167.25  11467.151  1
167.2  11494.175  1
167.15  11559.806  1
167.1  11539.672  1
167.05  11474.026  1
167  11585.318  1
166.95  11628.882  1
166.9  11605.172  1
166.85  11445.713  1
166.8  11507.784  1
166.75  11573.672  1
166.7  11442.756  1
166.65  11573.342  1
166.6  11635.938  1
166.55  11628.223  1
166.5  11601.588  1
166.45  11606.603  1
166.4  11633.614  1
166.35  11667.95  1
166.3  11652.519  1
166.25  11628.544  1
166.2  11560.241  1
166.15  11625.156  1
166.1  11603.994  1
166.05  11540.209  1
166  11616.17  1
165.95  11755.901  1
165.9  11596.191  1
165.85  11594.019  1
165.8  11592.181  1
165.75  11669.445  1
165.7  11646.088  1
165.65  11625.35  1
165.6  11663.16  1
165.55  11660.325  1
165.5  11685.544  1
165.45  11594.759  1
165.4  11673.391  1
165.35  11594.811  1
165.3  11689.519  1
165.25  11675.522  1
165.2  11748.894  1
165.15  11791.36  1
165.1  11790.687  1
165.05  11838.975  1
165  11802.234  1
164.95  11806.159  1
164.9  11856.317  1
164.85  11896.842  1
164.8  11897.847  1
164.75  11806.106  1
164.7  11829.562  1
164.65  11886.094  1
164.6  11999.153  1
164.55  11937.574  1
164.5  11954.367  1
164.45  11984.146  1
164.4  11905.099  1
164.35  11878.051  1
164.3  11916.207  1
164.25  11832.366  1
164.2  11922.517  1
164.15  11882.991  1
164.1  11904.821  1
164.05  11970.211  1
164  11993.197  1
163.95  12061.421  1
163.9  12062.39  1
163.85  12143.803  1
163.8  12202.558  1
163.75  12212.269  1
163.7  12275.821  1
163.65  12386.364  1
163.6  12339.922  1
163.55  12319.376  1
163.5  12307.853  1
163.45  12308.622  1
163.4  12193.971  1
163.35  12225.321  1
163.3  12224.479  1
163.25  12064.317  1
163.2  12078.028  1
163.15  11981.739  1
163.1  11898.935  1
163.05  11878.157  1
163  11928.208  1
162.95  11949.296  1
162.9  11947.637  1
162.85  11949.574  1
162.8  12008.399  1
162.75  12071.921  1
162.7  12075.56  1
162.65  12092.977  1
162.6  12096.103  1
162.55  12150.716  1
162.5  12105.793  1
162.45  12098.557  1
162.4  12022.572  1
162.35  11998.64  1
162.3  11936.023  1
162.25  11939.128  1
162.2  11864.183  1
162.15  11740.276  1
162.1  11735.68  1
162.05  11714.105  1
162  11656.667  1
161.95  11700.446  1
161.9  11611.794  1
161.85  11605.664  1
161.8  11565.107  1
161.75  11607.232  1
161.7  11496.389  1
161.65  11543.649  1
161.6  11622.687  1
161.55  11686.525  1
161.5  11630.777  1
161.45  11647.186  1
161.4  11586.203  1
161.35  11526.066  1
161.3  11673.585  1
161.25  11669.985  1
161.2  11515.706  1
161.15  11545.352  1
161.1  11519.955  1
161.05  11549.417  1
161  11593.266  1
160.95  11648.222  1
160.9  11631.799  1
160.85  11587.594  1
160.8  11625.772  1
160.75  11706.6  1
160.7  11806.591  1
160.65  11745.072  1
160.6  11617.708  1
160.55  11626.91  1
160.5  11621.43  1
160.45  11544.06  1
160.4  11626.668  1
160.35  11608.037  1
160.3  11591.548  1
160.25  11568.692  1
160.2  11482.863  1
160.15  11609.882  1
160.1  11598.164  1
160.05  11649.069  1
160  11734.523  1
159.95  11667.136  1
159.9  11616.13  1
159.85  11607.883  1
159.8  11628.129  1
159.75  11696.122  1
159.7  11656.735  1
159.65  11666.496  1
159.6  11606.268  1
159.55  11618.86  1
159.5  11664.952  1
159.45  11753.666  1
159.4  11705.972  1
159.35  11665.357  1
159.3  11614.018  1
159.25  11711.508  1
159.2  11679.37  1
159.15  11732.417  1
159.1  11770.416  1
159.05  11749.159  1
159  11742.065  1

# Region:                       C (0)
# Spectrum ID:                  12
# Acquisition Date:             06/10/22 18:21:43 UTC
# Analysis Method:              XPS
# Analyzer Lens:                MediumArea:3.5kV
# Analyzer Slit:                5:7x20\B:open
# Scan Mode:                    FixedAnalyzerTransmission
# Curves/Scan:                  1
# Values/Curve:                 201
# Dwell Time:                   0.1
# Excitation Energy:            1486.71
# Binding Energy:               290
# Pass Energy:                  20
# Bias Voltage:                 90
# Detector Voltage:             1750
# Eff. Workfunction:            4.341
# Source:                       Focus
# Comment:                      sin irradiar

# Cycle: 0
#
# Number of Scans: 6

# Cycle: 0, Curve: 0
#
# Acquisition Date:             06/10/22 18:21:43 UTC
# ColumnLabels:                 energy counts/s transmission
#
290  9842.0467  1
289.95  9910.5499  1
289.9  9826.3946  1
289.85  9850.2624  1
289.8  9902.3294  1
289.75  9931.4939  1
289.7  9902.9783  1
289.65  9787.2468  1
289.6  9864.5611  1
289.55  9949.062  1
289.5  9949.0854  1
289.45  9725.5931  1
289.4  9908.9787  1
289.35  10147.711  1
289.3  9842.9978  1
289.25  9914.3005  1
289.2  9803.2936  1
289.15  9859.8432  1
289.1  9644.3456  1
289.05  9882.0822  1
289  9851.552  1
288.95  9927.3161  1
288.9  9904.71  1
288.85  9878.8213  1
288.8  9795.9646  1
288.75  10018.213  1
288.7  9896.4659  1
288.65  9847.0659  1
288.6  10047.161  1
288.55  9986.1446  1
288.5  10065.336  1
288.45  10041.895  1
288.4  10194.673  1
288.35  10002.911  1
288.3  10107.745  1
288.25  10264.889  1
288.2  10086.788  1
288.15  10293.911  1
288.1  10153.924  1
288.05  10284.821  1
288  10220.49  1
287.95  10382.107  1
287.9  10467.673  1
287.85  10600.389  1
287.8  10498.513  1
287.75  10447.039  1
287.7  10319.408  1
287.65  10475.741  1
287.6  10483.178  1
287.55  10483.35  1
287.5  10437.949  1
287.45  10627.799  1
287.4  10508.556  1
287.35  10825.217  1
287.3  10666.066  1
287.25  10673.328  1
287.2  10728.367  1
287.15  10888.868  1
287.1  10693.158  1
287.05  10961.015  1
287  10693.614  1
286.95  10707.054  1
286.9  10689.488  1
286.85  10760.894  1
286.8  10595.176  1
286.75  10603.944  1
286.7  10825.469  1
286.65  10755.885  1
286.6  10846.325  1
286.55  10896.336  1
286.5  10946.919  1
286.45  10628.794  1
286.4  10585.493  1
286.35  10823.211  1
286.3  10934.364  1
286.25  10976.246  1
286.2  10790.179  1
286.15  10986.626  1
286.1  10955.131  1
286.05  11052.3  1
286  10784.69  1
285.95  10842.62  1
285.9  10822.793  1
285.85  11102.216  1
285.8  11281.738  1
285.75  11118.017  1
285.7  11280.125  1
285.65  11461.592  1
285.6  11276.931  1
285.55  11219.446  1
285.5  11133.15  1
285.45  11210.952  1
285.4  11266.473  1
285.35  11192.146  1
285.3  11228.112  1
285.25  11146.8  1
285.2  11343.533  1
285.15  11293.999  1
285.1  11329.419  1
285.05  11168.936  1
285  11203.384  1
284.95  11043.563  1
284.9  11031.918  1
284.85  10859.047  1
284.8  10679.888  1
284.75  10451.91  1
284.7  10377.809  1
284.65  10393.34  1
284.6  10160.563  1
284.55  10282.831  1
284.5  9953.9333  1
284.45  9944.9369  1
284.4  9996.1186  1
284.35  9882.3622  1
284.3  9795.002  1
284.25  9749.1601  1
284.2  9852.7366  1
284.15  9695.7081  1
284.1  9632.1787  1
284.05  9612.8735  1
284  9767.9223  1
283.95  9623.334  1
283.9  9477.1028  1
283.85  9643.0949  1
283.8  9667.5881  1
283.75  9806.9909  1
283.7  9897.9269  1
283.65  9631.2539  1
283.6  9308.4453  1
283.55  9615.7349  1
283.5  9439.8703  1
283.45  9476.981  1
283.4  9637.3444  1
283.35  9644.7873  1
283.3  9580.8718  1
283.25  9512.554  1
283.2  9625.5213  1
283.15  9668.109  1
283.1  9505.8793  1
283.05  9636.7251  1
283  9474.0013  1
282.95  9522.8483  1
282.9  9361.338  1
282.85  9717.2646  1
282.8  9643.4503  1
282.75  9796.8323  1
282.7  9625.6481  1
282.65  9463.2022  1
282.6  9500.5094  1
282.55  9768.6232  1
282.5  9781.4629  1
282.45  9638.6219  1
282.4  9629.3838  1
282.35  9461.1247  1
282.3  9499.4815  1
282.25  9741.4275  1
282.2  9734.1412  1
282.15  9427.6685  1
282.1  9470.4509  1
282.05  9499.8116  1
282  9504.8128  1
281.95  9435.2087  1
281.9  9472.7077  1
281.85  9613.7953  1
281.8  9510.3121  1
281.75  9503.4377  1
281.7  9221.3327  1
281.65  9435.0391  1
281.6  9372.2151  1
281.55  9618.49  1
281.5  9767.9748  1
281.45  9584.5034  1
281.4  9612.7513  1
281.35  9464.0741  1
281.3  9512.7454  1
281.25  9625.5473  1
281.2  9774.3102  1
281.15  9746.8107  1
281.1  9616.8655  1
281.05  9632.2802  1
281  9676.5939  1
280.95  9626.4711  1
280.9  9575.4024  1
280.85  9432.7879  1
280.8  9732.2919  1
280.75  9517.4639  1
280.7  9587.2789  1
280.65  9698.2611  1
280.6  9700.5107  1
280.55  9567.6407  1
280.5  9603.7206  1
280.45  9731.7065  1
280.4  9879.5053  1
280.35  9658.7854  1
280.3  9564.8252  1
280.25  9717.6184  1
280.2  9714.9987  1
280.15  9641.225  1
280.1  9665.2396  1
280.05  9563.1427  1
280  9470.2005  1

# Region:                       Au (0)
# Spectrum ID:                  13
# Acquisition Date:             06/10/22 18:25:39 UTC
# Analysis Method:              XPS
# Analyzer Lens:                MediumArea:3.5kV
# Analyzer Slit:                5:7x20\B:open
# Scan Mode:                    FixedAnalyzerTransmission
# Curves/Scan:                  1
# Values/Curve:                 281
# Dwell Time:                   0.1
# Excitation Energy:            1486.71
# Binding Energy:               94
# Pass Energy:                  20
# Bias Voltage:                 90
# Detector Voltage:             1750
# Eff. Workfunction:            4.341
# Source:                       Focus
# Comment:                      sin irradiar

# Cycle: 0
#
# Number of Scans: 5

# Cycle: 0, Curve: 0
#
# Acquisition Date:             06/10/22 18:25:39 UTC
# ColumnLabels:                 energy counts/s transmission
#
94  9542.5653  1
93.95  9676.3531  1
93.9  9491.5267  1
93.85  9630.8996  1
93.8  9649.6262  1
93.75  9737.7312  1
93.7  9606.0726  1
93.65  9642.7381  1
93.6  9781.9758  1
93.55  9826.4826  1
93.5  9750.6734  1
93.45  9641.777  1
93.4  9815.5972  1
93.35  9897.111  1
93.3  9895.4725  1
93.25  9994.7086  1
93.2  10100.717  1
93.15  9934.1733  1
93.1  10000.938  1
93.05  10005.524  1
93  10012.545  1
92.95  10067.986  1
92.9  10320.065  1
92.85  10400.439  1
92.8  10408.91  1
92.75  10512.727  1
92.7  10327.539  1
92.65  10441.858  1
92.6  10684.305  1
92.55  10916.301  1
92.5  10527.256  1
92.45  10477.431  1
92.4  10625.626  1
92.35  10905.289  1
92.3  10717.89  1
92.25  10671.162  1
92.2  11125.736  1
92.15  11070.746  1
92.1  10977.873  1
92.05  11153.246  1
92  11063.044  1
91.95  10886.875  1
91.9  11004.185  1
91.85  11181.167  1
91.8  11232.942  1
91.75  11215.756  1
91.7  11371.076  1
91.65  11235.426  1
91.6  11291.698  1
91.55  11151.207  1
91.5  11523.725  1
91.45  11712.68  1
91.4  11698.289  1
91.35  11396.18  1
91.3  11301.473  1
91.25  11366.794  1
91.2  11537.377  1
91.15  11819.44  1
91.1  11840.727  1
91.05  12034.247  1
91  12137.795  1
90.95  12184.624  1
90.9  12472.387  1
90.85  12545.535  1
90.8  12781.923  1
90.75  13338.112  1
90.7  13528.76  1
90.65  13940.064  1
90.6  14305.803  1
90.55  14762.754  1
90.5  15302.359  1
90.45  15909.144  1
90.4  16491.715  1
90.35  17477.118  1
90.3  18397.828  1
90.25  19105.055  1
90.2  20611.992  1
90.15  22141.093  1
90.1  23803.72  1
90.05  25724.853  1
90  28142.334  1
89.95  30795.07  1
89.9  35493.068  1
89.85  40127.246  1
89.8  46120.129  1
89.75  53072.131  1
89.7  60178.967  1
89.65  68711.236  1
89.6  77629.808  1
89.55  87920.536  1
89.5  96554.04  1
89.45  105133.29  1
89.4  112608.9  1
89.35  118278.14  1
89.3  121292.41  1
89.25  121844.2  1
89.2  118548.53  1
89.15  112751.31  1
89.1  104234.07  1
89.05  93605.432  1
89  85179.918  1
88.95  76632.369  1
88.9  68471.205  1
88.85  61526.842  1
88.8  54469.656  1
88.75  48642.558  1
88.7  43437.011  1
88.65  38262.412  1
88.6  33880.001  1
88.55  29325.797  1
88.5  26279.233  1
88.45  23314.833  1
88.4  21023.486  1
88.35  19084.767  1
88.3  17483.795  1
88.25  16252.297  1
88.2  15578.333  1
88.15  14630.585  1
88.1  13917.182  1
88.05  13566.81  1
88  12911.039  1
87.95  12673.434  1
87.9  12489.108  1
87.85  12149.916  1
87.8  11805.64  1
87.75  11717.02  1
87.7  11633.848  1
87.65  11422.622  1
87.6  11271.684  1
87.55  11069.912  1
87.5  11147.775  1
87.45  11257.188  1
87.4  11305.809  1
87.35  11200.767  1
87.3  11518.483  1
87.25  11504.033  1
87.2  11701.503  1
87.15  11972.572  1
87.1  12246.447  1
87.05  12520.133  1
87  13133.766  1
86.95  13178.173  1
86.9  13541.198  1
86.85  14274.035  1
86.8  14926.492  1
86.75  15818.631  1
86.7  16811.139  1
86.65  17758.124  1
86.6  18850.473  1
86.55  20276.309  1
86.5  21926.559  1
86.45  24148.57  1
86.4  26332.714  1
86.35  29267.163  1
86.3  33958.454  1
86.25  38910.896  1
86.2  44208.493  1
86.15  51724.26  1
86.1  60343.126  1
86.05  70825.868  1
86  83171.772  1
85.95  95101.491  1
85.9  109529.21  1
85.85  123832.25  1
85.8  137077.81  1
85.75  148840.7  1
85.7  157394.91  1
85.65  161985.9  1
85.6  163565.47  1
85.55  160435.63  1
85.5  151310.6  1
85.45  137995.22  1
85.4  121764.4  1
85.35  104375.56  1
85.3  86915.524  1
85.25  71460.054  1
85.2  59523.138  1
85.15  49249.443  1
85.1  40687.612  1
85.05  33632.781  1
85  28119.059  1
84.95  24164.601  1
84.9  20753.718  1
84.85  17572.481  1
84.8  15681.138  1
84.75  13765.45  1
84.7  12369.246  1
84.65  11522.902  1
84.6  10423.502  1
84.55  9502.8695  1
84.5  8941.5248  1
84.45  8233.7469  1
84.4  8092.0317  1
84.35  7631.8385  1
84.3  7273.6944  1
84.25  7022.7875  1
84.2  6491.6981  1
84.15  6417.5746  1
84.1  6031.1328  1
84.05  6147.1732  1
84  5755.1568  1
83.95  5609.9033  1
83.9  5327.87  1
83.85  5033.717  1
83.8  4846.6199  1
83.75  4926.0366  1
83.7  4838.6519  1
83.65  4760.6953  1
83.6  4630.8958  1
83.55  4473.5776  1
83.5  4334.3621  1
83.45  4103.3845  1
83.4  4200.6572  1
83.35  4194.0743  1
83.3  4060.1653  1
83.25  4138.7024  1
83.2  4103.1052  1
83.15  3844.931  1
83.1  3821.2559  1
83.05  3706.958  1
83  3637.3089  1
82.95  3577.0517  1
82.9  3557.247  1
82.85  3455.5199  1
82.8  3355.0886  1
82.75  3386.9784  1
82.7  3429.8083  1
82.65  3461.8228  1
82.6  3341.8652  1
82.55  3298.9823  1
82.5  3248.8092  1
82.45  3264.4927  1
82.4  3208.8502  1
82.35  3349.9627  1
82.3  3240.3186  1
82.25  3137.8083  1
82.2  3235.3485  1
82.15  3093.2002  1
82.1  3136.0787  1
82.05  3026.1807  1
82  2974.043  1
81.95  3194.9109  1
81.9  3132.0879  1
81.85  3009.9849  1
81.8  2922.5913  1
81.75  2968.9279  1
81.7  2989.5607  1
81.65  2992.6291  1
81.6  2945.6352  1
81.55  3066.9281  1
81.5  3008.1266  1
81.45  2984.1405  1
81.4  2964.2256  1
81.35  2898.7403  1
81.3  2910.4826  1
81.25  2946.6315  1
81.2  2929.8062  1
81.15  2965.738  1
81.1  2953.6743  1
81.05  2879.539  1
81  2931.4667  1
80.95  2861.2227  1
80.9  2908.2403  1
80.85  2939.4845  1
80.8  2839.7413  1
80.75  2734.2991  1
80.7  2785.4205  1
80.65  2916.8852  1
80.6  2800.3079  1
80.55  2941.8096  1
80.5  2807.233  1
80.45  2778.3449  1
80.4  2826.5864  1
80.35  2826.0718  1
80.3  2794.5765  1
80.25  2923.1166  1
80.2  2684.0948  1
80.15  2701.8517  1
80.1  2801.2833  1
80.05  2757.1323  1
80  2662.8844  1

# Region:                       VB (0)
# Spectrum ID:                  14
# Acquisition Date:             06/10/22 18:32:46 UTC
# Analysis Method:              XPS
# Analyzer Lens:                MediumArea:3.5kV
# Analyzer Slit:                5:7x20\B:open
# Scan Mode:                    FixedAnalyzerTransmission
# Curves/Scan:                  1
# Values/Curve:                 281
# Dwell Time:                   0.1
# Excitation Energy:            1486.71
# Binding Energy:               12
# Pass Energy:                  20
# Bias Voltage:                 90
# Detector Voltage:             1750
# Eff. Workfunction:            4.341
# Source:                       Focus
# Comment:                      sin irradiar

# Cycle: 0
#
# Number of Scans: 10

# Cycle: 0, Curve: 0
#
# Acquisition Date:             06/10/22 18:32:46 UTC
# ColumnLabels:                 energy counts/s transmission
#
12  1050.1356  1
11.95  1066.9724  1
11.9  1056.3112  1
11.85  1024.7981  1
11.8  1096.1723  1
11.75  1129.976  1
11.7  1090.1845  1
11.65  1066.2764  1
11.6  1139.1913  1
11.55  1099.7636  1
11.5  1176.2909  1
11.45  1189.2143  1
11.4  1175.7293  1
11.35  1166.7423  1
11.3  1178.012  1
11.25  1167.4454  1
11.2  1205.3895  1
11.15  1235.8662  1
11.1  1269.3916  1
11.05  1245.0236  1
11  1228.4563  1
10.95  1282.0376  1
10.9  1295.4721  1
10.85  1289.4365  1
10.8  1273.8459  1
10.75  1314.0724  1
10.7  1308.5865  1
10.65  1318.5319  1
10.6  1368.7769  1
10.55  1429.1844  1
10.5  1419.7473  1
10.45  1408.9567  1
10.4  1405.3183  1
10.35  1435.9678  1
10.3  1550.3134  1
10.25  1549.2233  1
10.2  1530.0445  1
10.15  1545.2141  1
10.1  1571.8651  1
10.05  1703.3988  1
10  1810.1243  1
9.95  1763.3042  1
9.9  1735.1536  1
9.85  1928.2719  1
9.8  2083.7099  1
9.75  2179.2182  1
9.7  2331.6731  1
9.65  2382.5712  1
9.6  2595.7589  1
9.55  2754.5901  1
9.5  2906.6869  1
9.45  3086.7814  1
9.4  3329.3968  1
9.35  3441.4015  1
9.3  3691.8227  1
9.25  3897.65  1
9.2  4123.6289  1
9.15  4342.6112  1
9.1  4493.5071  1
9.05  4656.2561  1
9  4893.4182  1
8.95  5078.0851  1
8.9  5223.3963  1
8.85  5454.0041  1
8.8  5467.2248  1
8.75  5621.5082  1
8.7  5749.0893  1
8.65  5849.5298  1
8.6  5840.7117  1
8.55  5860.5548  1
8.5  6089.2507  1
8.45  5997.0892  1
8.4  6148.2323  1
8.35  6285.5152  1
8.3  6406.9898  1
8.25  6579.4816  1
8.2  6729.4897  1
8.15  6928.6124  1
8.1  6977.7957  1
8.05  6960.3252  1
8  7117.1762  1
7.95  7288.0871  1
7.9  7358.775  1
7.85  7329.1021  1
7.8  7317.8563  1
7.75  7089.2843  1
7.7  6834.2276  1
7.65  6604.0886  1
7.6  6290.9952  1
7.55  5981.9931  1
7.5  5673.527  1
7.45  5555.3462  1
7.4  5219.4208  1
7.35  5199.1196  1
7.3  4956.6726  1
7.25  4871.4877  1
7.2  4943.3064  1
7.15  4751.471  1
7.1  4613.4102  1
7.05  4655.6609  1
7  4667.1304  1
6.95  4568.359  1
6.9  4718.9553  1
6.85  4640.5818  1
6.8  4691.9569  1
6.75  4753.7615  1
6.7  4861.8025  1
6.65  4802.7635  1
6.6  4866.7687  1
6.55  4825.9484  1
6.5  4920.202  1
6.45  4954.3431  1
6.4  5036.9618  1
6.35  5124.2589  1
6.3  5355.172  1
6.25  5470.7748  1
6.2  5633.9478  1
6.15  5844.5783  1
6.1  5994.9555  1
6.05  6156.5517  1
6  6303.2048  1
5.95  6413.9129  1
5.9  6621.1568  1
5.85  6525.3273  1
5.8  6563.7391  1
5.75  6782.3187  1
5.7  6813.774  1
5.65  6814.0096  1
5.6  6874.4655  1
5.55  6832.939  1
5.5  6909.4671  1
5.45  6858.4944  1
5.4  6752.3092  1
5.35  6789.6599  1
5.3  6817.1269  1
5.25  6854.5451  1
5.2  6658.0476  1
5.15  6647.8693  1
5.1  6710.6579  1
5.05  6809.3548  1
5  6539.6115  1
4.95  6594.3402  1
4.9  6677.1525  1
4.85  6615.28  1
4.8  6486.4788  1
4.75  6651.8234  1
4.7  6721.9615  1
4.65  6749.9882  1
4.6  6993.0851  1
4.55  7037.5794  1
4.5  7140.6669  1
4.45  7277.9465  1
4.4  7275.1713  1
4.35  7374.5833  1
4.3  7330.831  1
4.25  7109.2565  1
4.2  6876.8359  1
4.15  6766.3529  1
4.1  6434.2535  1
4.05  5880.0551  1
4  5550.6138  1
3.95  5125.2352  1
3.9  4455.7671  1
3.85  3982.32  1
3.8  3497.2937  1
3.75  3165.0193  1
3.7  2886.8789  1
3.65  2527.0957  1
3.6  2289.9624  1
3.55  2022.3006  1
3.5  1860.4986  1
3.45  1735.6986  1
3.4  1581.0675  1
3.35  1543.7416  1
3.3  1481.5898  1
3.25  1387.5641  1
3.2  1313.5698  1
3.15  1269.1888  1
3.1  1211.1871  1
3.05  1139.2913  1
3  1128.8888  1
2.95  1106.2222  1
2.9  1098.2952  1
2.85  1087.86  1
2.8  1025.4248  1
2.75  1054.1111  1
2.7  1003.8958  1
2.65  990.45816  1
2.6  1004.389  1
2.55  988.31963  1
2.5  1017.8915  1
2.45  920.23223  1
2.4  919.02453  1
2.35  859.03022  1
2.3  830.94513  1
2.25  861.5276  1
2.2  832.26255  1
2.15  814.18906  1
2.1  849.15615  1
2.05  834.49633  1
2  758.9924  1
1.95  739.72862  1
1.9  644.60512  1
1.85  613.85257  1
1.8  558.01505  1
1.75  478.39777  1
1.7  403.924  1
1.65  356.69556  1
1.6  290.29123  1
1.55  198.05972  1
1.5  154.16799  1
1.45  121.76303  1
1.4  82.283037  1
1.35  66.131632  1
1.3  53.84879  1
1.25  40.227197  1
1.2  41.296695  1
1.15  39.15088  1
1.1  33.481928  1
1.05  37.977336  1
1  37.390478  1
0.95  31.583002  1
0.9  29.134797  1
0.85  30.308643  1
0.8  29.544343  1
0.75  31.254054  1
0.7  26.832055  1
0.65  28.598532  1
0.6  26.849449  1
0.55  31.215843  1
0.5  21.766823  1
0.45  16.547236  1
0.4  27.190511  1
0.35  22.523339  1
0.3  29.226011  1
0.25  22.171099  1
0.2  24.153104  1
0.15  28.272353  1
0.1  20.173255  1
0.05  28.098428  1
0  25.247328  1
-0.05  32.009356  1
-0.1  28.406868  1
-0.15  24.7038  1
-0.2  17.794704  1
-0.25  21.496302  1
-0.3  22.65575  1
-0.35  14.85158  1
-0.4  24.379228  1
-0.45  20.728965  1
-0.5  25.483803  1
-0.55  23.067241  1
-0.6  18.468857  1
-0.65  18.490719  1
-0.7  24.364755  1
-0.75  17.909084  1
-0.8  23.755572  1
-0.85  22.018604  1
-0.9  21.313832  1
-0.95  28.21096  1
-1  28.231348  1
-1.05  14.396932  1
-1.1  20.71046  1
-1.15  24.0386  1
-1.2  22.181928  1
-1.25  16.156304  1
-1.3  13.222656  1
-1.35  21.211125  1
-1.4  15.154619  1
-1.45  18.254156  1
-1.5  18.322216  1
-1.55  31.149764  1
-1.6  13.87046  1
-1.65  16.125865  1
-1.7  15.037252  1
-1.75  15.035283  1
-1.8  11.866072  1
-1.85  14.898396  1
-1.9  8.932692  1
-1.95  9.3212  1
-2  13.56762  1

# Region:                       O (0)
# Spectrum ID:                  15
# Acquisition Date:             06/10/22 18:37:05 UTC
# Analysis Method:              XPS
# Analyzer Lens:                MediumArea:3.5kV
# Analyzer Slit:                5:7x20\B:open
# Scan Mode:                    FixedAnalyzerTransmission
# Curves/Scan:                  1
# Values/Curve:                 241
# Dwell Time:                   0.1
# Excitation Energy:            1486.71
# Binding Energy:               539
# Pass Energy:                  20
# Bias Voltage:                 90
# Detector Voltage:             1750
# Eff. Workfunction:            4.341
# Source:                       Focus
# Comment:                      sin irradiar

# Cycle: 0
#
# Number of Scans: 5

# Cycle: 0, Curve: 0
#
# Acquisition Date:             06/10/22 18:37:05 UTC
# ColumnLabels:                 energy counts/s transmission
#
539  20396.449  1
538.95  20416.09  1
538.9  19998.655  1
538.85  20045.281  1
538.8  20206.237  1
538.75  19979.24  1
538.7  20375.96  1
538.65  20092.843  1
538.6  19998.145  1
538.55  20384.762  1
538.5  20448.076  1
538.45  20474.336  1
538.4  20329.259  1
538.35  19893.616  1
538.3  20000.427  1
538.25  20204.684  1
538.2  20238.259  1
538.15  20105.692  1
538.1  20603.49  1
538.05  20215.632  1
538  20087.655  1
537.95  19990.353  1
537.9  19752.198  1
537.85  20214.615  1
537.8  20246.642  1
537.75  20305.8  1
537.7  20100.31  1
537.65  20139.233  1
537.6  20130.82  1
537.55  20471.545  1
537.5  20245.848  1
537.45  20333.182  1
537.4  20008.597  1
537.35  20057.637  1
537.3  20262.735  1
537.25  20049.209  1
537.2  20351.65  1
537.15  19927.661  1
537.1  20227.503  1
537.05  19952.179  1
537  20018.727  1
536.95  20016.429  1
536.9  20128.891  1
536.85  20465.838  1
536.8  20144.73  1
536.75  20270.125  1
536.7  20234.34  1
536.65  20024.494  1
536.6  20030.177  1
536.55  20061.591  1
536.5  20356.404  1
536.45  20709.631  1
536.4  20715.258  1
536.35  20851.898  1
536.3  20778.816  1
536.25  20685.051  1
536.2  20933.923  1
536.15  21029.918  1
536.1  20795.146  1
536.05  20870.82  1
536  20747.898  1
535.95  21145.179  1
535.9  21358.579  1
535.85  21324.225  1
535.8  21641.95  1
535.75  21926.804  1
535.7  21653.471  1
535.65  22176.938  1
535.6  22643.138  1
535.55  22863.795  1
535.5  22821.183  1
535.45  23002.333  1
535.4  23961.314  1
535.35  24823.654  1
535.3  25022.072  1
535.25  25500.977  1
535.2  26241.479  1
535.15  26583.606  1
535.1  27317.909  1
535.05  28104.009  1
535  28790.829  1
534.95  29894.546  1
534.9  30278.37  1
534.85  31127.745  1
534.8  31937.718  1
534.75  32841.328  1
534.7  33480.688  1
534.65  33803.466  1
534.6  34702.157  1
534.55  35160.111  1
534.5  35833.087  1
534.45  36345.268  1
534.4  36661.122  1
534.35  36736.861  1
534.3  36976.111  1
534.25  36768.903  1
534.2  36788.673  1
534.15  36580.862  1
534.1  36183.204  1
534.05  35886.826  1
534  35212.32  1
533.95  33949.805  1
533.9  33459.018  1
533.85  32870.847  1
533.8  32085.547  1
533.75  31914.24  1
533.7  30651.643  1
533.65  29706.686  1
533.6  28604.213  1
533.55  27523.173  1
533.5  27549.474  1
533.45  26578.677  1
533.4  25785.223  1
533.35  25099.154  1
533.3  25106.243  1
533.25  24324.159  1
533.2  23645.143  1
533.15  23462.338  1
533.1  23426.175  1
533.05  23304.223  1
533  22870.634  1
532.95  22653.581  1
532.9  22083.126  1
532.85  21844.999  1
532.8  22034.744  1
532.75  21842.094  1
532.7  21965.887  1
532.65  21538.428  1
532.6  21389.365  1
532.55  21341.203  1
532.5  21573.761  1
532.45  21193.219  1
532.4  21097.198  1
532.35  21172.538  1
532.3  21034.469  1
532.25  20953.977  1
532.2  20631.007  1
532.15  20425.183  1
532.1  20116.2  1
532.05  20326.351  1
532  19996.535  1
531.95  20153.013  1
531.9  20127.386  1
531.85  20100.379  1
531.8  20052.907  1
531.75  20051.373  1
531.7  19901.027  1
531.65  19764.299  1
531.6  19570.195  1
531.55  19671.413  1
531.5  19761.568  1
531.45  19790.844  1
531.4  19637.99  1
531.35  19898.089  1
531.3  20034.426  1
531.25  19506.931  1
531.2  19340.261  1
531.15  19782.803  1
531.1  19498.152  1
531.05  19738.847  1
531  19583.736  1
530.95  19358.938  1
530.9  19525.036  1
530.85  19812.897  1
530.8  19600.595  1
530.75  19493.654  1
530.7  19515.762  1
530.65  19548.01  1
530.6  19630.91  1
530.55  19404.756  1
530.5  19520.296  1
530.45  19298.645  1
530.4  19344.939  1
530.35  19713.97  1
530.3  19181.354  1
530.25  19391.284  1
530.2  19612.463  1
530.15  19336.419  1
530.1  19200.647  1
530.05  19254.143  1
530  19241.279  1
529.95  19423.471  1
529.9  19217.516  1
529.85  19261.939  1
529.8  19486.685  1
529.75  19656.668  1
529.7  19400.062  1
529.65  19378.97  1
529.6  19247.214  1
529.55  19015.184  1
529.5  19181.749  1
529.45  19087.264  1
529.4  19487.975  1
529.35  19512.318  1
529.3  19455.729  1
529.25  19394.1  1
529.2  19507.036  1
529.15  19424.35  1
529.1  19342.425  1
529.05  19427.877  1
529  19111.892  1
528.95  19282.511  1
528.9  19384.611  1
528.85  19557.653  1
528.8  19335.576  1
528.75  19226.286  1
528.7  18996.561  1
528.65  19410.148  1
528.6  19256.28  1
528.55  19317.087  1
528.5  19272.18  1
528.45  19420.077  1
528.4  19449.665  1
528.35  19311.962  1
528.3  19270.188  1
528.25  19341.536  1
528.2  19501.173  1
528.15  19525.25  1
528.1  19238.195  1
528.05  19487.553  1
528  19376.369  1
527.95  19011.546  1
527.9  19063.565  1
527.85  18841.575  1
527.8  18980.356  1
527.75  19480.984  1
527.7  19404.898  1
527.65  19498.63  1
527.6  19191.207  1
527.55  19292.276  1
527.5  19297.468  1
527.45  19381.676  1
527.4  19629.69  1
527.35  19445.979  1
527.3  19145.58  1
527.25  19220.263  1
527.2  18946.488  1
527.15  19360.807  1
527.1  19363.24  1
527.05  19397.887  1
527  19499.848  1

# Region:                       S (1)
# Spectrum ID:                  16
# Acquisition Date:             06/10/22 18:52:49 UTC
# Analysis Method:              XPS
# Analyzer Lens:                MediumArea:3.5kV
# Analyzer Slit:                5:7x20\B:open
# Scan Mode:                    FixedAnalyzerTransmission
# Curves/Scan:                  1
# Values/Curve:                 181
# Dwell Time:                   0.1
# Excitation Energy:            1486.71
# Binding Energy:               168
# Pass Energy:                  20
# Bias Voltage:                 90
# Detector Voltage:             1750
# Eff. Workfunction:            4.341
# Source:                       Focus
# Comment:                      5'irrad

# Cycle: 0
#
# Number of Scans: 30

# Cycle: 0, Curve: 0
#
# Acquisition Date:             06/10/22 18:52:49 UTC
# ColumnLabels:                 energy counts/s transmission
#
168  11472.665  1
167.95  11398.411  1
167.9  11305.989  1
167.85  11386.837  1
167.8  11423.341  1
167.75  11421.004  1
167.7  11451.098  1
167.65  11376.213  1
167.6  11406.122  1
167.55  11469.764  1
167.5  11428.848  1
167.45  11491.379  1
167.4  11390.118  1
167.35  11350.829  1
167.3  11483.113  1
167.25  11374.57  1
167.2  11437.685  1
167.15  11467.558  1
167.1  11486.597  1
167.05  11509.165  1
167  11572.699  1
166.95  11435.096  1
166.9  11464.475  1
166.85  11542.295  1
166.8  11552.528  1
166.75  11573.36  1
166.7  11513.696  1
166.65  11573.603  1
166.6  11504.826  1
166.55  11593.347  1
166.5  11597.538  1
166.45  11470.597  1
166.4  11588.996  1
166.35  11511.57  1
166.3  11417.48  1
166.25  11538.081  1
166.2  11554.521  1
166.15  11625.562  1
166.1  11540.275  1
166.05  11671.238  1
166  11575.247  1
165.95  11563.492  1
165.9  11468.082  1
165.85  11653.118  1
165.8  11588.971  1
165.75  11621.783  1
165.7  11680.544  1
165.65  11674.806  1
165.6  11682.121  1
165.55  11694.696  1
165.5  11641.262  1
165.45  11665.916  1
165.4  11798.331  1
165.35  11708.556  1
165.3  11650.284  1
165.25  11830.518  1
165.2  11797.872  1
165.15  11813.805  1
165.1  11834.412  1
165.05  11786.654  1
165  11798.975  1
164.95  11778.555  1
164.9  11833.645  1
164.85  11884.221  1
164.8  11876.702  1
164.75  11962.087  1
164.7  11893.926  1
164.65  11843.089  1
164.6  11825.405  1
164.55  11753.536  1
164.5  11964.19  1
164.45  11882.092  1
164.4  11769.823  1
164.35  11817.424  1
164.3  11994.304  1
164.25  11903.027  1
164.2  11961.706  1
164.15  12062.767  1
164.1  12054.002  1
164.05  12040.96  1
164  12186.347  1
163.95  12128.97  1
163.9  12166.578  1
163.85  12165.919  1
163.8  12145.58  1
163.75  12203.111  1
163.7  12064.738  1
163.65  12144.592  1
163.6  12127.168  1
163.55  11983.556  1
163.5  12056.398  1
163.45  12093.127  1
163.4  12070.297  1
163.35  12089.533  1
163.3  11988.627  1
163.25  12062.121  1
163.2  12144.547  1
163.15  12010.633  1
163.1  12004.544  1
163.05  12094.279  1
163  12067.262  1
162.95  11971.737  1
162.9  12086.616  1
162.85  12043.268  1
162.8  12164.58  1
162.75  12173.236  1
162.7  12172.949  1
162.65  12016.668  1
162.6  11981.267  1
162.55  11924.293  1
162.5  11907.871  1
162.45  11857.903  1
162.4  11876.952  1
162.35  11810.335  1
162.3  11743.942  1
162.25  11591.369  1
162.2  11550.081  1
162.15  11580.973  1
162.1  11634.572  1
162.05  11566.499  1
162  11429.358  1
161.95  11457.328  1
161.9  11509.236  1
161.85  11485.221  1
161.8  11559.505  1
161.75  11516.411  1
161.7  11573.73  1
161.65  11487.08  1
161.6  11466.117  1
161.55  11552.222  1
161.5  11526.627  1
161.45  11570.16  1
161.4  11636.495  1
161.35  11512.21  1
161.3  11590.303  1
161.25  11634.31  1
161.2  11525.321  1
161.15  11606.212  1
161.1  11670.75  1
161.05  11541.521  1
161  11567.011  1
160.95  11611.267  1
160.9  11630.761  1
160.85  11530.233  1
160.8  11547.61  1
160.75  11608.918  1
160.7  11598.912  1
160.65  11526.435  1
160.6  11512.938  1
160.55  11573.583  1
160.5  11549.758  1
160.45  11618.624  1
160.4  11553.713  1
160.35  11583.596  1
160.3  11621.883  1
160.25  11678.654  1
160.2  11558.107  1
160.15  11620.13  1
160.1  11588.35  1
160.05  11687.358  1
160  11627.485  1
159.95  11644.988  1
159.9  11656.94  1
159.85  11687.505  1
159.8  11742.44  1
159.75  11660.483  1
159.7  11683.556  1
159.65  11598.32  1
159.6  11713.514  1
159.55  11690.283  1
159.5  11690.99  1
159.45  11649.03  1
159.4  11679.559  1
159.35  11569.356  1
159.3  11792  1
159.25  11764.845  1
159.2  11732.739  1
159.15  11742.157  1
159.1  11686.87  1
159.05  11791.899  1
159  11764.026  1

# Region:                       C (1)
# Spectrum ID:                  17
# Acquisition Date:             06/10/22 19:08:18 UTC
# Analysis Method:              XPS
# Analyzer Lens:                MediumArea:3.5kV
# Analyzer Slit:                5:7x20\B:open
# Scan Mode:                    FixedAnalyzerTransmission
# Curves/Scan:                  1
# Values/Curve:                 201
# Dwell Time:                   0.1
# Excitation Energy:            1486.71
# Binding Energy:               290
# Pass Energy:                  20
# Bias Voltage:                 90
# Detector Voltage:             1750
# Eff. Workfunction:            4.341
# Source:                       Focus
# Comment:                      5'irrad

# Cycle: 0
#
# Number of Scans: 6

# Cycle: 0, Curve: 0
#
# Acquisition Date:             06/10/22 19:08:18 UTC
# ColumnLabels:                 energy counts/s transmission
#
290  9653.4949  1
289.95  9649.6133  1
289.9  9770.0544  1
289.85  9812.1161  1
289.8  9834.038  1
289.75  9797.0861  1
289.7  9817.3187  1
289.65  9714.0955  1
289.6  9748.6367  1
289.55  9842.2661  1
289.5  9739.9273  1
289.45  9589.7953  1
289.4  9819.5142  1
289.35  9848.5825  1
289.3  9663.3652  1
289.25  9719.9526  1
289.2  9667.767  1
289.15  9646.0961  1
289.1  9780.5136  1
289.05  9969.2045  1
289  9651.0855  1
288.95  9635.9193  1
288.9  9748.9152  1
288.85  9907.7949  1
288.8  10160.263  1
288.75  10120.566  1
288.7  9934.4585  1
288.65  10059.103  1
288.6  10188.271  1
288.55  10085.366  1
288.5  10188.054  1
288.45  10249.198  1
288.4  10148.597  1
288.35  10020.992  1
288.3  10151.008  1
288.25  10408.367  1
288.2  10462.882  1
288.15  10381.165  1
288.1  10427.62  1
288.05  10408.295  1
288  10595.756  1
287.95  10441.289  1
287.9  10138.868  1
287.85  10244.977  1
287.8  10472.527  1
287.75  10404.704  1
287.7  10496.534  1
287.65  10550.593  1
287.6  10565.848  1
287.55  10537.155  1
287.5  10738.454  1
287.45  10702.731  1
287.4  10831.549  1
287.35  10513.58  1
287.3  10415.672  1
287.25  10526.029  1
287.2  10743.236  1
287.15  10877.397  1
287.1  10631.319  1
287.05  10568.765  1
287  10655.619  1
286.95  10618.023  1
286.9  10563.151  1
286.85  10618.9  1
286.8  10497.976  1
286.75  10572.102  1
286.7  10768.949  1
286.65  10772.531  1
286.6  10649.672  1
286.55  10766.857  1
286.5  10863.075  1
286.45  10921.553  1
286.4  10908.264  1
286.35  10860.004  1
286.3  10909.326  1
286.25  11068.547  1
286.2  11017.429  1
286.15  11115.719  1
286.1  11028.887  1
286.05  11024.06  1
286  10966.408  1
285.95  11110.042  1
285.9  10960.672  1
285.85  10952.259  1
285.8  10989.989  1
285.75  11033.715  1
285.7  11067.023  1
285.65  11083.929  1
285.6  10792.556  1
285.55  11029.887  1
285.5  10619.354  1
285.45  10705.844  1
285.4  10841.475  1
285.35  10910.17  1
285.3  10683.251  1
285.25  10283.116  1
285.2  10245.698  1
285.15  10187.406  1
285.1  10084.916  1
285.05  10194.375  1
285  10068.92  1
284.95  9860.7024  1
284.9  9971.0561  1
284.85  9625.23  1
284.8  9784.2671  1
284.75  9639.6207  1
284.7  9621.1893  1
284.65  9762.7226  1
284.6  9598.8831  1
284.55  9556.2274  1
284.5  9691.0495  1
284.45  9764.4445  1
284.4  9488.1612  1
284.35  9477.3278  1
284.3  9415.4107  1
284.25  9419.1643  1
284.2  9495.4639  1
284.15  9528.2171  1
284.1  9754.5605  1
284.05  9812.8011  1
284  9652.7869  1
283.95  9470.966  1
283.9  9521.0881  1
283.85  9486.9242  1
283.8  9476.1233  1
283.75  9535.994  1
283.7  9602.1102  1
283.65  9877.3244  1
283.6  9755.2054  1
283.55  9710.7944  1
283.5  9693.5271  1
283.45  9532.1627  1
283.4  9502.8693  1
283.35  9488.5684  1
283.3  9537.282  1
283.25  9307.9461  1
283.2  9660.11  1
283.15  9576.2175  1
283.1  9568.0314  1
283.05  9690.4856  1
283  9733.3398  1
282.95  9484.085  1
282.9  9695.2546  1
282.85  9669.2128  1
282.8  9604.0909  1
282.75  9297.6164  1
282.7  9395.5262  1
282.65  9660.0761  1
282.6  9648.7795  1
282.55  9635.681  1
282.5  9602.5066  1
282.45  9663.0106  1
282.4  9481.4018  1
282.35  9453.1116  1
282.3  9513.3746  1
282.25  9635.3868  1
282.2  9436.7667  1
282.15  9485.1814  1
282.1  9613.8519  1
282.05  9526.2129  1
282  9347.9533  1
281.95  9534.755  1
281.9  9930.9459  1
281.85  9862.145  1
281.8  9700.6282  1
281.75  9562.2806  1
281.7  9552.3497  1
281.65  9668.9008  1
281.6  9636.3389  1
281.55  9532.4415  1
281.5  9681.6418  1
281.45  9679.1894  1
281.4  9827.4966  1
281.35  9785.4774  1
281.3  9633.5484  1
281.25  9538.2072  1
281.2  9626.9909  1
281.15  9511.8645  1
281.1  9397.3602  1
281.05  9374.5102  1
281  9665.8201  1
280.95  9629.7058  1
280.9  9754.5744  1
280.85  9699.1459  1
280.8  9429.1643  1
280.75  9549.0842  1
280.7  9533.4101  1
280.65  9422.8213  1
280.6  9264.1927  1
280.55  9447.6061  1
280.5  9465.5692  1
280.45  9563.5904  1
280.4  9587.4724  1
280.35  9624.0955  1
280.3  9698.2696  1
280.25  9562.8535  1
280.2  9469.0464  1
280.15  9518.5514  1
280.1  9493.983  1
280.05  9715.0328  1
280  9677.1134  1

# Region:                       Au (1)
# Spectrum ID:                  18
# Acquisition Date:             06/10/22 19:12:11 UTC
# Analysis Method:              XPS
# Analyzer Lens:                MediumArea:3.5kV
# Analyzer Slit:                5:7x20\B:open
# Scan Mode:                    FixedAnalyzerTransmission
# Curves/Scan:                  1
# Values/Curve:                 281
# Dwell Time:                   0.1
# Excitation Energy:            1486.71
# Binding Energy:               94
# Pass Energy:                  20
# Bias Voltage:                 90
# Detector Voltage:             1750
# Eff. Workfunction:            4.341
# Source:                       Focus
# Comment:                      5'irrad

# Cycle: 0
#
# Number of Scans: 5

# Cycle: 0, Curve: 0
#
# Acquisition Date:             06/10/22 19:12:11 UTC
# ColumnLabels:                 energy counts/s transmission
#
94  9840.8158  1
93.95  9969.1624  1
93.9  10002.638  1
93.85  9888.5352  1
93.8  9939.129  1
93.75  10206.422  1
93.7  9887.9376  1
93.65  9706.1025  1
93.6  9929.6523  1
93.55  9762.0382  1
93.5  9981.5482  1
93.45  10092.601  1
93.4  9870.3574  1
93.35  9964.7637  1
93.3  9920.1508  1
93.25  10330.867  1
93.2  10382.493  1
93.15  10171.342  1
93.1  10203.492  1
93.05  10239.556  1
93  10231.92  1
92.95  10201.434  1
92.9  10256.695  1
92.85  10520.797  1
92.8  10647.779  1
92.75  10732.891  1
92.7  10564.986  1
92.65  10584.393  1
92.6  10707.487  1
92.55  10753.805  1
92.5  10867.644  1
92.45  10982.849  1
92.4  11012.144  1
92.35  10991.061  1
92.3  11169.336  1
92.25  11300.642  1
92.2  11116.663  1
92.15  11230.857  1
92.1  11152.953  1
92.05  11247.931  1
92  11573.478  1
91.95  11354.097  1
91.9  11295.71  1
91.85  11403.795  1
91.8  11529.602  1
91.75  11562.409  1
91.7  11784.956  1
91.65  11713.256  1
91.6  11594.745  1
91.55  11391.065  1
91.5  11865.454  1
91.45  11568.89  1
91.4  11658.48  1
91.35  11571.614  1
91.3  11474.655  1
91.25  11638.78  1
91.2  11913.558  1
91.15  11907.476  1
91.1  12257.126  1
91.05  12374.096  1
91  12574.6  1
90.95  12730.528  1
90.9  12963.747  1
90.85  13439.636  1
90.8  13609.227  1
90.75  14086.259  1
90.7  14455.015  1
90.65  14636.856  1
90.6  15201.674  1
90.55  15767.011  1
90.5  16190.536  1
90.45  16748.596  1
90.4  17593.969  1
90.35  18859.258  1
90.3  19833.323  1
90.25  20863.145  1
90.2  22539.784  1
90.15  24198.697  1
90.1  26165.659  1
90.05  28818.799  1
90  31419.71  1
89.95  35590.214  1
89.9  39911.969  1
89.85  45135.066  1
89.8  52194.568  1
89.75  60259.743  1
89.7  69261.934  1
89.65  79533.727  1
89.6  90778.294  1
89.55  101271.44  1
89.5  112589.02  1
89.45  122900.76  1
89.4  130714.16  1
89.35  135871.92  1
89.3  138085.89  1
89.25  136544.52  1
89.2  130403.48  1
89.15  120204.57  1
89.1  106844.35  1
89.05  92830.773  1
89  78876.066  1
88.95  66241.008  1
88.9  54953.174  1
88.85  45379.34  1
88.8  37975.97  1
88.75  32306.012  1
88.7  28518.011  1
88.65  25169.249  1
88.6  22823.341  1
88.55  20761.838  1
88.5  18471.624  1
88.45  17454.859  1
88.4  16473.548  1
88.35  15430.9  1
88.3  14989.746  1
88.25  14556.437  1
88.2  14047.295  1
88.15  13571.508  1
88.1  13220.795  1
88.05  12812.565  1
88  12322.306  1
87.95  11964.992  1
87.9  11923.305  1
87.85  11705.325  1
87.8  11650.692  1
87.75  11252.01  1
87.7  11536.029  1
87.65  11410.56  1
87.6  11039.375  1
87.55  11381.989  1
87.5  11308.834  1
87.45  11036.379  1
87.4  11332.082  1
87.35  11586.214  1
87.3  11583.861  1
87.25  11950.794  1
87.2  12138.237  1
87.15  12191.622  1
87.1  12765.036  1
87.05  12922.501  1
87  13167.058  1
86.95  13906.914  1
86.9  14801.963  1
86.85  15579.284  1
86.8  16006.874  1
86.75  16717.834  1
86.7  17726.607  1
86.65  18764.382  1
86.6  20131.113  1
86.55  21952.33  1
86.5  24081.629  1
86.45  26211.979  1
86.4  28801.621  1
86.35  32510.928  1
86.3  36244.438  1
86.25  41470.896  1
86.2  48406.637  1
86.15  56903.293  1
86.1  65740.684  1
86.05  77215.425  1
86  89674.286  1
85.95  103661.14  1
85.9  118481.62  1
85.85  133319.64  1
85.8  148382.6  1
85.75  160133.33  1
85.7  168966.94  1
85.65  174426.78  1
85.6  174049.33  1
85.55  168503.25  1
85.5  158136.65  1
85.45  141630  1
85.4  123303.27  1
85.35  103660.79  1
85.3  85043.377  1
85.25  69040.473  1
85.2  55912.651  1
85.15  45647.317  1
85.1  37393.02  1
85.05  30938.601  1
85  26111.01  1
84.95  22373.203  1
84.9  19387.49  1
84.85  17086.232  1
84.8  15165.886  1
84.75  13791.693  1
84.7  12124.09  1
84.65  11259.841  1
84.6  10411.753  1
84.55  9716.0359  1
84.5  9209.2723  1
84.45  8692.1694  1
84.4  8345.9543  1
84.35  7886.2271  1
84.3  7353.4928  1
84.25  7033.7124  1
84.2  6727.5966  1
84.15  6699.182  1
84.1  6416.4271  1
84.05  5981.8106  1
84  5794.0738  1
83.95  5516.14  1
83.9  5387.3219  1
83.85  5204.4471  1
83.8  5093.4848  1
83.75  4997.7413  1
83.7  4937.5103  1
83.65  4923.0286  1
83.6  4857.1109  1
83.55  4535.0601  1
83.5  4488.317  1
83.45  4399.3851  1
83.4  4177.8121  1
83.35  4117.0402  1
83.3  4228.6885  1
83.25  4103.4005  1
83.2  3874.4591  1
83.15  3850.5764  1
83.1  3736.1492  1
83.05  3765.99  1
83  3709.398  1
82.95  3727.9588  1
82.9  3668.4079  1
82.85  3555.6991  1
82.8  3475.4817  1
82.75  3433.9678  1
82.7  3382.9823  1
82.65  3341.3702  1
82.6  3335.0866  1
82.55  3376.0261  1
82.5  3299.6254  1
82.45  3246.1848  1
82.4  3234.6603  1
82.35  3181.9093  1
82.3  3244.9531  1
82.25  3130.2306  1
82.2  3176.8577  1
82.15  3174.4681  1
82.1  3093.3451  1
82.05  3126.8849  1
82  3072.8074  1
81.95  3061.6108  1
81.9  3038.6085  1
81.85  3015.7101  1
81.8  2975.6345  1
81.75  3051.1436  1
81.7  3002.3188  1
81.65  2905.4299  1
81.6  2923.1333  1
81.55  3041.9604  1
81.5  3033.599  1
81.45  2894.3656  1
81.4  2897.4811  1
81.35  2977.3873  1
81.3  3014.8952  1
81.25  3052.7636  1
81.2  2902.9986  1
81.15  2731.7843  1
81.1  2799.5501  1
81.05  2752.703  1
81  2811.0979  1
80.95  2912.9512  1
80.9  2857.3593  1
80.85  2842.668  1
80.8  2791.8298  1
80.75  2770.3349  1
80.7  2891.2812  1
80.65  2866.7333  1
80.6  2692.3649  1
80.55  2770.8766  1
80.5  2819.5581  1
80.45  2863.7011  1
80.4  2773.158  1
80.35  2813.593  1
80.3  2833.8117  1
80.25  2787.9032  1
80.2  2817.9588  1
80.15  2868.3821  1
80.1  2902.7452  1
80.05  2749.8323  1
80  2772.9483  1

# Region:                       VB (1)
# Spectrum ID:                  19
# Acquisition Date:             06/10/22 19:19:10 UTC
# Analysis Method:              XPS
# Analyzer Lens:                MediumArea:3.5kV
# Analyzer Slit:                5:7x20\B:open
# Scan Mode:                    FixedAnalyzerTransmission
# Curves/Scan:                  1
# Values/Curve:                 281
# Dwell Time:                   0.1
# Excitation Energy:            1486.71
# Binding Energy:               12
# Pass Energy:                  20
# Bias Voltage:                 90
# Detector Voltage:             1750
# Eff. Workfunction:            4.341
# Source:                       Focus
# Comment:                      5'irrad

# Cycle: 0
#
# Number of Scans: 10

# Cycle: 0, Curve: 0
#
# Acquisition Date:             06/10/22 19:19:10 UTC
# ColumnLabels:                 energy counts/s transmission
#
12  1163.0189  1
11.95  1128.368  1
11.9  1130.6476  1
11.85  1111.7751  1
11.8  1153.841  1
11.75  1122.9566  1
11.7  1121.9528  1
11.65  1143.0478  1
11.6  1174.6575  1
11.55  1172.199  1
11.5  1204.305  1
11.45  1204.3734  1
11.4  1232.6173  1
11.35  1175.3262  1
11.3  1217.2546  1
11.25  1233.0669  1
11.2  1214.2198  1
11.15  1265.157  1
11.1  1261.8885  1
11.05  1324.7388  1
11  1316.4499  1
10.95  1282.706  1
10.9  1232.6721  1
10.85  1302.6122  1
10.8  1271.6358  1
10.75  1275.4006  1
10.7  1323.478  1
10.65  1377.2792  1
10.6  1353.8042  1
10.55  1401.7823  1
10.5  1404.1182  1
10.45  1394.1896  1
10.4  1388.8124  1
10.35  1477.1857  1
10.3  1485.3195  1
10.25  1494.3766  1
10.2  1577.3512  1
10.15  1653.6059  1
10.1  1685.9404  1
10.05  1740.947  1
10  1757.9199  1
9.95  1853.0383  1
9.9  1931.7157  1
9.85  2006.9833  1
9.8  2121.7891  1
9.75  2243.9039  1
9.7  2456.5502  1
9.65  2564.5986  1
9.6  2632.4323  1
9.55  2867.424  1
9.5  3000.2988  1
9.45  3191.3746  1
9.4  3359.1935  1
9.35  3494.6306  1
9.3  3701.3367  1
9.25  3930.2784  1
9.2  4210.6861  1
9.15  4351.3058  1
9.1  4596.759  1
9.05  4801.472  1
9  5068.9481  1
8.95  5188.6765  1
8.9  5388.8188  1
8.85  5579.5308  1
8.8  5582.6375  1
8.75  5737.2006  1
8.7  5907.816  1
8.65  5939.1752  1
8.6  5914.5246  1
8.55  6161.2567  1
8.5  6127.6935  1
8.45  6225.4534  1
8.4  6342.335  1
8.35  6320.9063  1
8.3  6631.2036  1
8.25  6805.5863  1
8.2  6805.2836  1
8.15  6876.5833  1
8.1  7163.3085  1
8.05  7437.0876  1
8  7468.3733  1
7.95  7481.2946  1
7.9  7464.5749  1
7.85  7472.9325  1
7.8  7600.8507  1
7.75  7271.0637  1
7.7  7001.9259  1
7.65  6712.157  1
7.6  6398.6758  1
7.55  6150.7138  1
7.5  5852.0755  1
7.45  5607.7976  1
7.4  5383.0734  1
7.35  5257.5712  1
7.3  5127.0626  1
7.25  4905.9473  1
7.2  4887.5711  1
7.15  4770.5581  1
7.1  4754.8534  1
7.05  4650.3006  1
7  4577.2732  1
6.95  4653.1131  1
6.9  4636.5592  1
6.85  4668.3489  1
6.8  4741.3745  1
6.75  4802.4634  1
6.7  4880.7381  1
6.65  4878.9901  1
6.6  4925.4161  1
6.55  4990.6969  1
6.5  5107.7239  1
6.45  5183.4819  1
6.4  5145.3672  1
6.35  5145.8536  1
6.3  5442.8356  1
6.25  5649.6623  1
6.2  5894.7194  1
6.15  6188.2819  1
6.1  6214.0427  1
6.05  6303.9215  1
6  6465.8292  1
5.95  6564.2777  1
5.9  6746.9854  1
5.85  6760.7011  1
5.8  7075.5073  1
5.75  7125.1882  1
5.7  7099.1792  1
5.65  7135.6208  1
5.6  7178.6741  1
5.55  7155.7705  1
5.5  7146.7062  1
5.45  6984.317  1
5.4  6967.763  1
5.35  6932.8967  1
5.3  6984.1868  1
5.25  6793.9541  1
5.2  6932.9057  1
5.15  6803.6142  1
5.1  6741.0772  1
5.05  6839.2612  1
5  6695.5004  1
4.95  6719.8666  1
4.9  6713.5724  1
4.85  6705.0727  1
4.8  6766.9522  1
4.75  6968.8748  1
4.7  6892.1842  1
4.65  7138.3801  1
4.6  7185.1359  1
4.55  7310.1766  1
4.5  7381.6593  1
4.45  7496.681  1
4.4  7559.9808  1
4.35  7363.8281  1
4.3  7366.9059  1
4.25  7345.2832  1
4.2  7160.9253  1
4.15  7078.5474  1
4.1  6537.1299  1
4.05  5939.2691  1
4  5575.858  1
3.95  4898.2153  1
3.9  4429.8436  1
3.85  4006.1747  1
3.8  3673.9003  1
3.75  3224.0497  1
3.7  2858.3245  1
3.65  2498.5166  1
3.6  2218.7533  1
3.55  1984.6479  1
3.5  1846.5297  1
3.45  1719.2506  1
3.4  1629.6605  1
3.35  1501.22  1
3.3  1449.3043  1
3.25  1404.5021  1
3.2  1273.0404  1
3.15  1271.5598  1
3.1  1226.1745  1
3.05  1217.6765  1
3  1122.6602  1
2.95  1113.9081  1
2.9  1113.6693  1
2.85  1139.6686  1
2.8  1140.0539  1
2.75  1110.7344  1
2.7  1041.2073  1
2.65  1077.2372  1
2.6  1023.907  1
2.55  954.62949  1
2.5  920.1902  1
2.45  897.10491  1
2.4  892.96028  1
2.35  869.64209  1
2.3  894.18604  1
2.25  857.61733  1
2.2  794.95772  1
2.15  773.61319  1
2.1  790.31504  1
2.05  775.21165  1
2  764.66705  1
1.95  712.82434  1
1.9  677.18635  1
1.85  625.72001  1
1.8  573.38803  1
1.75  482.17099  1
1.7  401.51101  1
1.65  379.93001  1
1.6  295.49214  1
1.55  232.91963  1
1.5  167.20943  1
1.45  100.61064  1
1.4  75.818481  1
1.35  65.949081  1
1.3  52.425301  1
1.25  43.25653  1
1.2  40.579879  1
1.15  32.287704  1
1.1  35.302736  1
1.05  41.447253  1
1  38.944795  1
0.95  37.746122  1
0.9  24.890698  1
0.85  22.460013  1
0.8  30.976737  1
0.75  33.45118  1
0.7  39.31664  1
0.65  35.50548  1
0.6  32.850431  1
0.55  27.63616  1
0.5  25.254948  1
0.45  24.114333  1
0.4  27.476207  1
0.35  21.45829  1
0.3  27.967391  1
0.25  32.725887  1
0.2  29.333312  1
0.15  25.91212  1
0.1  27.801764  1
0.05  20.939641  1
0  25.114527  1
-0.05  30.91064  1
-0.1  28.915417  1
-0.15  22.199623  1
-0.2  22.708772  1
-0.25  22.872181  1
-0.3  22.912952  1
-0.35  26.886119  1
-0.4  25.096372  1
-0.45  20.939476  1
-0.5  22.3316  1
-0.55  24.850233  1
-0.6  24.569236  1
-0.65  22.473027  1
-0.7  18.066521  1
-0.75  22.395641  1
-0.8  18.531451  1
-0.85  15.606757  1
-0.9  23.646151  1
-0.95  22.605352  1
-1  20.056248  1
-1.05  18.86486  1
-1.1  10.524701  1
-1.15  19.002159  1
-1.2  15.44735  1
-1.25  14.64607  1
-1.3  24.35722  1
-1.35  16.795964  1
-1.4  17.257904  1
-1.45  19.379656  1
-1.5  16.732096  1
-1.55  16.338644  1
-1.6  18.624601  1
-1.65  14.969915  1
-1.7  20.438508  1
-1.75  13.584969  1
-1.8  20.567207  1
-1.85  14.090676  1
-1.9  12.70216  1
-1.95  13.131165  1
-2  13.986127  1

# Region:                       O (1)
# Spectrum ID:                  20
# Acquisition Date:             06/10/22 19:23:27 UTC
# Analysis Method:              XPS
# Analyzer Lens:                MediumArea:3.5kV
# Analyzer Slit:                5:7x20\B:open
# Scan Mode:                    FixedAnalyzerTransmission
# Curves/Scan:                  1
# Values/Curve:                 241
# Dwell Time:                   0.1
# Excitation Energy:            1486.71
# Binding Energy:               539
# Pass Energy:                  20
# Bias Voltage:                 90
# Detector Voltage:             1750
# Eff. Workfunction:            4.341
# Source:                       Focus
# Comment:                      5'irrad

# Cycle: 0
#
# Number of Scans: 5

# Cycle: 0, Curve: 0
#
# Acquisition Date:             06/10/22 19:23:27 UTC
# ColumnLabels:                 energy counts/s transmission
#
539  20452.442  1
538.95  20069.495  1
538.9  20058.751  1
538.85  20021.591  1
538.8  20088.922  1
538.75  19924.689  1
538.7  19995.329  1
538.65  20381.604  1
538.6  20202.774  1
538.55  20053.653  1
538.5  19828.092  1
538.45  19756.101  1
538.4  19598.358  1
538.35  19855.039  1
538.3  19809.583  1
538.25  19938.993  1
538.2  20317.182  1
538.15  20484.061  1
538.1  20035.069  1
538.05  20010.356  1
538  20364.345  1
537.95  20254.824  1
537.9  20413.982  1
537.85  20270.803  1
537.8  20025.654  1
537.75  20305.681  1
537.7  20088.089  1
537.65  19945.615  1
537.6  20064.444  1
537.55  20035.65  1
537.5  20002.668  1
537.45  20061.397  1
537.4  19896.311  1
537.35  19956.958  1
537.3  20083.714  1
537.25  19819.522  1
537.2  19868.454  1
537.15  19907.91  1
537.1  20160.716  1
537.05  20113.881  1
537  19837.087  1
536.95  20005.095  1
536.9  20158.102  1
536.85  20358.26  1
536.8  20272.293  1
536.75  19954.185  1
536.7  20157.676  1
536.65  20252.367  1
536.6  20340.035  1
536.55  20792.848  1
536.5  20381.319  1
536.45  20389.257  1
536.4  20362.094  1
536.35  20282.183  1
536.3  20281.385  1
536.25  20309.063  1
536.2  20791.037  1
536.15  20713.022  1
536.1  20489.399  1
536.05  20776.788  1
536  21120.997  1
535.95  21467.753  1
535.9  21623.026  1
535.85  21668.124  1
535.8  21772.981  1
535.75  22155.735  1
535.7  22482.744  1
535.65  22520.189  1
535.6  22784.099  1
535.55  23184.662  1
535.5  23688.801  1
535.45  24089.432  1
535.4  24375.06  1
535.35  25340.34  1
535.3  26046.547  1
535.25  26508.941  1
535.2  27155.81  1
535.15  27456.751  1
535.1  28089.839  1
535.05  28745.722  1
535  29572.953  1
534.95  30406.478  1
534.9  31511.608  1
534.85  31957.391  1
534.8  32762.545  1
534.75  33392.189  1
534.7  34053.723  1
534.65  34526.32  1
534.6  34834.503  1
534.55  35139.365  1
534.5  35906.336  1
534.45  36111.607  1
534.4  35765.704  1
534.35  35836.315  1
534.3  36356.201  1
534.25  36200.148  1
534.2  35021.759  1
534.15  34998.978  1
534.1  34437.184  1
534.05  33954.098  1
534  33314.326  1
533.95  32431.799  1
533.9  31775.549  1
533.85  30848.194  1
533.8  29952.594  1
533.75  29044.444  1
533.7  28548.526  1
533.65  27653.655  1
533.6  26567.738  1
533.55  25789.765  1
533.5  25177.21  1
533.45  24897.163  1
533.4  24446.928  1
533.35  24122.024  1
533.3  23313.014  1
533.25  22843.461  1
533.2  22321.341  1
533.15  22312.629  1
533.1  22358.963  1
533.05  21660.197  1
533  21805.221  1
532.95  21613.021  1
532.9  21563.479  1
532.85  21634.234  1
532.8  21069.027  1
532.75  21214.73  1
532.7  21009.928  1
532.65  20809.903  1
532.6  20869.14  1
532.55  20700.751  1
532.5  20445.514  1
532.45  20605.06  1
532.4  20641.979  1
532.35  20216.029  1
532.3  20257.783  1
532.25  20247.62  1
532.2  20245.249  1
532.15  20203.363  1
532.1  20240.281  1
532.05  20419.176  1
532  20094.92  1
531.95  19718.988  1
531.9  19995.184  1
531.85  19960.814  1
531.8  19738.853  1
531.75  19683.025  1
531.7  19864.449  1
531.65  19959.506  1
531.6  19515.981  1
531.55  19256.798  1
531.5  19287.687  1
531.45  19408.422  1
531.4  19570.354  1
531.35  19605.156  1
531.3  19719.454  1
531.25  19421.57  1
531.2  19517.416  1
531.15  19422.821  1
531.1  19299.744  1
531.05  19362.859  1
531  19447.469  1
530.95  19240.623  1
530.9  19243.959  1
530.85  19406.922  1
530.8  19299.102  1
530.75  19385.04  1
530.7  19216.224  1
530.65  19153.301  1
530.6  19383.312  1
530.55  19555.111  1
530.5  19201.413  1
530.45  19312.672  1
530.4  19318.444  1
530.35  19197.282  1
530.3  19250.024  1
530.25  19418.516  1
530.2  19223.519  1
530.15  19226.98  1
530.1  19348.647  1
530.05  19309.964  1
530  19319.33  1
529.95  18901.538  1
529.9  19076.974  1
529.85  19145.372  1
529.8  19070.351  1
529.75  19112.96  1
529.7  19154.892  1
529.65  18925.077  1
529.6  19120.279  1
529.55  19295.952  1
529.5  19203.64  1
529.45  19104.203  1
529.4  19299.522  1
529.35  19000.73  1
529.3  18984.88  1
529.25  19123.626  1
529.2  19494.177  1
529.15  19404.829  1
529.1  19291.514  1
529.05  19177.025  1
529  19129.276  1
528.95  19524.13  1
528.9  19083.165  1
528.85  19067.404  1
528.8  19113.162  1
528.75  19142.062  1
528.7  19306.731  1
528.65  19422.93  1
528.6  19151.961  1
528.55  19169.959  1
528.5  19279.207  1
528.45  19422.169  1
528.4  19355.161  1
528.35  19259.424  1
528.3  19198.338  1
528.25  18900.315  1
528.2  18884.956  1
528.15  19412.921  1
528.1  19221.818  1
528.05  18795.237  1
528  18612.854  1
527.95  18738.092  1
527.9  19128.229  1
527.85  19288.07  1
527.8  19449.289  1
527.75  19313.913  1
527.7  19374.647  1
527.65  19350.491  1
527.6  19289.462  1
527.55  19479.358  1
527.5  19241.918  1
527.45  19366.811  1
527.4  19517.38  1
527.35  19221.988  1
527.3  19170.921  1
527.25  19434.296  1
527.2  19417.026  1
527.15  19372.569  1
527.1  19312.932  1
527.05  19049.61  1
527  19102.705  1

# Region:                       S (2)
# Spectrum ID:                  21
# Acquisition Date:             06/10/22 19:42:48 UTC
# Analysis Method:              XPS
# Analyzer Lens:                MediumArea:3.5kV
# Analyzer Slit:                5:7x20\B:open
# Scan Mode:                    FixedAnalyzerTransmission
# Curves/Scan:                  1
# Values/Curve:                 181
# Dwell Time:                   0.1
# Excitation Energy:            1486.71
# Binding Energy:               168
# Pass Energy:                  20
# Bias Voltage:                 90
# Detector Voltage:             1750
# Eff. Workfunction:            4.341
# Source:                       Focus
# Comment:                      10'irrad

# Cycle: 0
#
# Number of Scans: 30

# Cycle: 0, Curve: 0
#
# Acquisition Date:             06/10/22 19:42:48 UTC
# ColumnLabels:                 energy counts/s transmission
#
168  11353.845  1
167.95  11277.158  1
167.9  11355.726  1
167.85  11377.592  1
167.8  11471.465  1
167.75  11384.084  1
167.7  11392.212  1
167.65  11410.137  1
167.6  11406.087  1
167.55  11495.837  1
167.5  11429.366  1
167.45  11418.93  1
167.4  11364.032  1
167.35  11455.924  1
167.3  11331.733  1
167.25  11423.994  1
167.2  11422.564  1
167.15  11419.209  1
167.1  11314.182  1
167.05  11408.674  1
167  11334.421  1
166.95  11399.563  1
166.9  11424.921  1
166.85  11448.914  1
166.8  11530.728  1
166.75  11471.592  1
166.7  11321.028  1
166.65  11403.235  1
166.6  11467.542  1
166.55  11506.363  1
166.5  11425.566  1
166.45  11476.713  1
166.4  11479.083  1
166.35  11393.939  1
166.3  11399.279  1
166.25  11511.336  1
166.2  11521.224  1
166.15  11436.086  1
166.1  11499.711  1
166.05  11533.108  1
166  11507.496  1
165.95  11649.135  1
165.9  11534.362  1
165.85  11518.923  1
165.8  11574.988  1
165.75  11621.38  1
165.7  11575.32  1
165.65  11674.718  1
165.6  11605.225  1
165.55  11575.536  1
165.5  11575.233  1
165.45  11464.04  1
165.4  11493.692  1
165.35  11620.124  1
165.3  11701.134  1
165.25  11744.517  1
165.2  11644.541  1
165.15  11685.066  1
165.1  11704.861  1
165.05  11728.868  1
165  11730.453  1
164.95  11807.906  1
164.9  11774.298  1
164.85  11771.613  1
164.8  11782.091  1
164.75  11763.207  1
164.7  11691.481  1
164.65  11894.021  1
164.6  11913.296  1
164.55  11911.699  1
164.5  11870.886  1
164.45  11747.41  1
164.4  11826.093  1
164.35  11849.31  1
164.3  11888.264  1
164.25  11870.664  1
164.2  11999.242  1
164.15  11978.916  1
164.1  11982.439  1
164.05  12025.894  1
164  12040.882  1
163.95  12042.518  1
163.9  12052.523  1
163.85  12041.775  1
163.8  12046.167  1
163.75  12007.846  1
163.7  12069.593  1
163.65  12145.695  1
163.6  12015.748  1
163.55  11921.83  1
163.5  11987.417  1
163.45  11917.918  1
163.4  11930.723  1
163.35  11931.088  1
163.3  11914.845  1
163.25  11823.523  1
163.2  11890.28  1
163.15  11926.461  1
163.1  11976.976  1
163.05  11976.675  1
163  12023.562  1
162.95  12067.822  1
162.9  12083.328  1
162.85  12118.893  1
162.8  12104.951  1
162.75  12076.637  1
162.7  12039.414  1
162.65  11975.287  1
162.6  11950.801  1
162.55  11871.981  1
162.5  11806.534  1
162.45  11832.868  1
162.4  11793.926  1
162.35  11674.063  1
162.3  11626.509  1
162.25  11578.02  1
162.2  11540.324  1
162.15  11524.709  1
162.1  11470.167  1
162.05  11563.785  1
162  11456.609  1
161.95  11385.514  1
161.9  11438.913  1
161.85  11440.356  1
161.8  11438.039  1
161.75  11505.206  1
161.7  11478.952  1
161.65  11423.357  1
161.6  11440.115  1
161.55  11575.435  1
161.5  11527.586  1
161.45  11478.199  1
161.4  11437.761  1
161.35  11551.383  1
161.3  11601.473  1
161.25  11604.39  1
161.2  11477.954  1
161.15  11465.732  1
161.1  11456.664  1
161.05  11406.326  1
161  11462.417  1
160.95  11521.553  1
160.9  11524.911  1
160.85  11482.718  1
160.8  11552.381  1
160.75  11526.624  1
160.7  11524.801  1
160.65  11578.923  1
160.6  11562.86  1
160.55  11537.813  1
160.5  11561.285  1
160.45  11468.71  1
160.4  11495.644  1
160.35  11449.221  1
160.3  11602.631  1
160.25  11520.812  1
160.2  11489.956  1
160.15  11399.848  1
160.1  11632.669  1
160.05  11544.885  1
160  11521.125  1
159.95  11492.891  1
159.9  11543.566  1
159.85  11539.415  1
159.8  11661.11  1
159.75  11581.112  1
159.7  11548.813  1
159.65  11551.265  1
159.6  11577.389  1
159.55  11684.901  1
159.5  11679.906  1
159.45  11655.716  1
159.4  11531.697  1
159.35  11638.506  1
159.3  11692.682  1
159.25  11715.101  1
159.2  11648.669  1
159.15  11755.075  1
159.1  11756.13  1
159.05  11607.764  1
159  11663.845  1

# Region:                       C (2)
# Spectrum ID:                  22
# Acquisition Date:             06/10/22 19:58:19 UTC
# Analysis Method:              XPS
# Analyzer Lens:                MediumArea:3.5kV
# Analyzer Slit:                5:7x20\B:open
# Scan Mode:                    FixedAnalyzerTransmission
# Curves/Scan:                  1
# Values/Curve:                 201
# Dwell Time:                   0.1
# Excitation Energy:            1486.71
# Binding Energy:               290
# Pass Energy:                  20
# Bias Voltage:                 90
# Detector Voltage:             1750
# Eff. Workfunction:            4.341
# Source:                       Focus
# Comment:                      10'irrad

# Cycle: 0
#
# Number of Scans: 6

# Cycle: 0, Curve: 0
#
# Acquisition Date:             06/10/22 19:58:19 UTC
# ColumnLabels:                 energy counts/s transmission
#
290  9892.7222  1
289.95  9763.8383  1
289.9  9690.2667  1
289.85  9769.146  1
289.8  9763.6752  1
289.75  9820.3249  1
289.7  9850.0459  1
289.65  9830.3842  1
289.6  9671.8023  1
289.55  9622.0603  1
289.5  9573.7451  1
289.45  9745.14  1
289.4  9743.2022  1
289.35  10000.16  1
289.3  9950.6807  1
289.25  9799.9163  1
289.2  9741.421  1
289.15  9853.322  1
289.1  9797.2929  1
289.05  9826.7517  1
289  9727.0984  1
288.95  9792.3485  1
288.9  9955.2863  1
288.85  9683.64  1
288.8  9854.9381  1
288.75  9712.4018  1
288.7  9820.0255  1
288.65  10038.704  1
288.6  10076.633  1
288.55  9972.2685  1
288.5  10007.029  1
288.45  10165.175  1
288.4  10132.643  1
288.35  10101.202  1
288.3  10246.652  1
288.25  9961.578  1
288.2  10037.419  1
288.15  10262.448  1
288.1  10390.716  1
288.05  10305.669  1
288  10301.248  1
287.95  10385.885  1
287.9  10413.969  1
287.85  10428.368  1
287.8  10154.634  1
287.75  10298.17  1
287.7  10355.222  1
287.65  10339.833  1
287.6  10444.859  1
287.55  10522.332  1
287.5  10505.521  1
287.45  10322.132  1
287.4  10367.906  1
287.35  10555.323  1
287.3  10507.091  1
287.25  10521.773  1
287.2  10411.121  1
287.15  10470.506  1
287.1  10552.508  1
287.05  10653.211  1
287  10549.709  1
286.95  10694.428  1
286.9  10731.662  1
286.85  10633.634  1
286.8  10742.167  1
286.75  10857.183  1
286.7  10789.241  1
286.65  10876.997  1
286.6  10884.349  1
286.55  10913.744  1
286.5  10770.923  1
286.45  10567.337  1
286.4  10809.783  1
286.35  10888.332  1
286.3  11052.883  1
286.25  11163.818  1
286.2  10903.733  1
286.15  11092.921  1
286.1  11161.418  1
286.05  11222.897  1
286  11216.056  1
285.95  11136.391  1
285.9  11145.006  1
285.85  11001.717  1
285.8  11149.961  1
285.75  11120.467  1
285.7  10892.085  1
285.65  10982.805  1
285.6  10833.203  1
285.55  10874.405  1
285.5  10939.503  1
285.45  10624.186  1
285.4  10535.75  1
285.35  10701.842  1
285.3  10517.626  1
285.25  10192.173  1
285.2  10060.045  1
285.15  10035.454  1
285.1  10076.071  1
285.05  10108.606  1
285  9883.2817  1
284.95  9951.216  1
284.9  9747.4605  1
284.85  9538.1286  1
284.8  9768.3177  1
284.75  9668.4133  1
284.7  9699.0493  1
284.65  9576.1121  1
284.6  9681.7441  1
284.55  9748.9629  1
284.5  9630.8795  1
284.45  9545.4693  1
284.4  9653.7646  1
284.35  9468.0698  1
284.3  9561.4697  1
284.25  9626.2959  1
284.2  9397.4687  1
284.15  9641.9613  1
284.1  9578.5604  1
284.05  9482.9151  1
284  9417.8514  1
283.95  9628.3176  1
283.9  9725.0772  1
283.85  9540.263  1
283.8  9432.3141  1
283.75  9368.5101  1
283.7  9402.9774  1
283.65  9443.3082  1
283.6  9464.9998  1
283.55  9243.3213  1
283.5  9434.6191  1
283.45  9447.2018  1
283.4  9555.0275  1
283.35  9519.9826  1
283.3  9458.1615  1
283.25  9569.4223  1
283.2  9634.4774  1
283.15  9305.2285  1
283.1  9399.0292  1
283.05  9538.0227  1
283  9472.731  1
282.95  9422.1007  1
282.9  9635.2623  1
282.85  9338.1934  1
282.8  9591.7553  1
282.75  9559.8403  1
282.7  9642.6086  1
282.65  9465.9688  1
282.6  9313.1773  1
282.55  9515.7354  1
282.5  9732.3806  1
282.45  9544.8213  1
282.4  9449.8477  1
282.35  9421.5948  1
282.3  9448.9595  1
282.25  9543.0583  1
282.2  9584.5002  1
282.15  9465.612  1
282.1  9697.3825  1
282.05  9423.8546  1
282  9189.1471  1
281.95  9588.4565  1
281.9  9514.1831  1
281.85  9643.618  1
281.8  9609.6102  1
281.75  9624.5222  1
281.7  9389.8415  1
281.65  9322.1909  1
281.6  9449.2875  1
281.55  9653.6951  1
281.5  9572.8549  1
281.45  9440.2913  1
281.4  9660.6954  1
281.35  9755.9454  1
281.3  9518.3246  1
281.25  9575.8983  1
281.2  9716.4676  1
281.15  9694.8287  1
281.1  9416.0028  1
281.05  9559.5993  1
281  9497.0406  1
280.95  9457.4432  1
280.9  9379.9858  1
280.85  9479.9823  1
280.8  9333.3086  1
280.75  9419.8611  1
280.7  9477.7858  1
280.65  9479.9102  1
280.6  9553.1987  1
280.55  9566.7529  1
280.5  9391.5336  1
280.45  9405.173  1
280.4  9419.8325  1
280.35  9497.1047  1
280.3  9567.8671  1
280.25  9537.2049  1
280.2  9645.5087  1
280.15  9576.287  1
280.1  9356.7294  1
280.05  9568.0224  1
280  9573.1882  1

# Region:                       Au (2)
# Spectrum ID:                  23
# Acquisition Date:             06/10/22 20:02:14 UTC
# Analysis Method:              XPS
# Analyzer Lens:                MediumArea:3.5kV
# Analyzer Slit:                5:7x20\B:open
# Scan Mode:                    FixedAnalyzerTransmission
# Curves/Scan:                  1
# Values/Curve:                 281
# Dwell Time:                   0.1
# Excitation Energy:            1486.71
# Binding Energy:               94
# Pass Energy:                  20
# Bias Voltage:                 90
# Detector Voltage:             1750
# Eff. Workfunction:            4.341
# Source:                       Focus
# Comment:                      10'irrad

# Cycle: 0
#
# Number of Scans: 5

# Cycle: 0, Curve: 0
#
# Acquisition Date:             06/10/22 20:02:14 UTC
# ColumnLabels:                 energy counts/s transmission
#
94  9815.5162  1
93.95  9802.9435  1
93.9  10024.469  1
93.85  9909.0331  1
93.8  9746.2577  1
93.75  10004.635  1
93.7  9838.0165  1
93.65  9755.158  1
93.6  9924.0451  1
93.55  10004.367  1
93.5  9992.3476  1
93.45  10126.534  1
93.4  10084.916  1
93.35  10026.988  1
93.3  10052.063  1
93.25  10259.544  1
93.2  10236.948  1
93.15  10136.765  1
93.1  10221.677  1
93.05  10254.253  1
93  10336.16  1
92.95  10688.563  1
92.9  10656.25  1
92.85  10548.192  1
92.8  10437.143  1
92.75  10740.423  1
92.7  10883.508  1
92.65  10730.03  1
92.6  10612.417  1
92.55  10923.917  1
92.5  11074.268  1
92.45  10964.79  1
92.4  11081.534  1
92.35  11130.348  1
92.3  11180.38  1
92.25  11274.96  1
92.2  11341.633  1
92.15  11120.181  1
92.1  11183.857  1
92.05  11070.539  1
92  11293.994  1
91.95  11477.142  1
91.9  11511.142  1
91.85  11467.344  1
91.8  11520.05  1
91.75  11503.362  1
91.7  11646.798  1
91.65  11723.522  1
91.6  11688.899  1
91.55  11419.367  1
91.5  11292.31  1
91.45  11460.404  1
91.4  11798.689  1
91.35  11578.445  1
91.3  11569.086  1
91.25  11825.256  1
91.2  11922.769  1
91.15  11903.565  1
91.1  12263.754  1
91.05  12638.453  1
91  12801.375  1
90.95  13120.926  1
90.9  13135.606  1
90.85  13164.059  1
90.8  13290.224  1
90.75  13768.205  1
90.7  14280.6  1
90.65  14562.523  1
90.6  14965.779  1
90.55  15942.879  1
90.5  16122.454  1
90.45  16915.348  1
90.4  17604.09  1
90.35  18518.104  1
90.3  19670.434  1
90.25  20737.834  1
90.2  22040.719  1
90.15  23689.4  1
90.1  26069.696  1
90.05  28147.822  1
90  30833.605  1
89.95  34214.476  1
89.9  38444.66  1
89.85  44068.439  1
89.8  50836.525  1
89.75  57948.486  1
89.7  66950.051  1
89.65  77774.723  1
89.6  88333.381  1
89.55  100290.72  1
89.5  111819.8  1
89.45  121963.39  1
89.4  130363.75  1
89.35  136014.82  1
89.3  139628.21  1
89.25  137603.38  1
89.2  133009.9  1
89.15  122463.25  1
89.1  109328.72  1
89.05  95881.966  1
89  80947.204  1
88.95  67677.288  1
88.9  56255.048  1
88.85  47002.118  1
88.8  39150.654  1
88.75  33848.198  1
88.7  29441.879  1
88.65  25623.456  1
88.6  23187.212  1
88.55  20790.286  1
88.5  19214.294  1
88.45  17987.565  1
88.4  16702.359  1
88.35  15901.36  1
88.3  15140.256  1
88.25  14695.041  1
88.2  14142.557  1
88.15  13525.803  1
88.1  12886.143  1
88.05  12842.777  1
88  12346.394  1
87.95  12264.596  1
87.9  12212.893  1
87.85  12079.107  1
87.8  11756.677  1
87.75  11554.627  1
87.7  11450.247  1
87.65  11175.712  1
87.6  11236.753  1
87.55  11145.482  1
87.5  11187.187  1
87.45  11316.876  1
87.4  11562.111  1
87.35  11567.836  1
87.3  11602.495  1
87.25  11890.611  1
87.2  11917.052  1
87.15  12229.976  1
87.1  12777.647  1
87.05  13088.563  1
87  13190.931  1
86.95  14057.154  1
86.9  14609.498  1
86.85  14995.923  1
86.8  15773.566  1
86.75  16391.022  1
86.7  17471.626  1
86.65  18659.361  1
86.6  20014.536  1
86.55  21187.406  1
86.5  23109.431  1
86.45  25562.307  1
86.4  28396.686  1
86.35  31978.247  1
86.3  36100.978  1
86.25  40849.76  1
86.2  46965.791  1
86.15  54530.923  1
86.1  63797.846  1
86.05  74720.983  1
86  87154.127  1
85.95  101234.88  1
85.9  116498.39  1
85.85  131210.22  1
85.8  145721.66  1
85.75  159469.81  1
85.7  168491.85  1
85.65  173864.38  1
85.6  175733.17  1
85.55  170326.62  1
85.5  160901.85  1
85.45  145743.06  1
85.4  126828.35  1
85.35  106147.97  1
85.3  88101.427  1
85.25  71296.321  1
85.2  57861.908  1
85.15  46734.579  1
85.1  38463.681  1
85.05  32248.343  1
85  27156.594  1
84.95  23587.509  1
84.9  20232.553  1
84.85  17303.608  1
84.8  15556.529  1
84.75  13949.985  1
84.7  12541.871  1
84.65  11536.176  1
84.6  10631.868  1
84.55  9969.0612  1
84.5  9283.5167  1
84.45  8670.9138  1
84.4  8232.5306  1
84.35  7635.2752  1
84.3  7240.2605  1
84.25  7006.0036  1
84.2  6760.732  1
84.15  6514.1477  1
84.1  6141.2127  1
84.05  6095.0903  1
84  5775.7976  1
83.95  5576.0513  1
83.9  5321.11  1
83.85  5316.0375  1
83.8  5101.1533  1
83.75  5114.2391  1
83.7  4974.6497  1
83.65  4889.8438  1
83.6  4660.3277  1
83.55  4581.9622  1
83.5  4383.6515  1
83.45  4289.7586  1
83.4  4234.1144  1
83.35  4234.7898  1
83.3  4189.1451  1
83.25  3989.3733  1
83.2  4015.9951  1
83.15  3983.9307  1
83.1  3928.471  1
83.05  3843.9957  1
83  3763.0676  1
82.95  3580.0563  1
82.9  3631.0588  1
82.85  3643.8181  1
82.8  3418.6237  1
82.75  3417.7667  1
82.7  3557.0321  1
82.65  3447.8418  1
82.6  3417.4318  1
82.55  3355.7075  1
82.5  3410.1632  1
82.45  3342.3682  1
82.4  3281.1152  1
82.35  3293.2043  1
82.3  3242.548  1
82.25  3175.6306  1
82.2  3112.6428  1
82.15  3133.2251  1
82.1  3132.8259  1
82.05  3159.3369  1
82  2998.9698  1
81.95  3012.0941  1
81.9  3022.7764  1
81.85  2981.27  1
81.8  3046.9529  1
81.75  3036.6706  1
81.7  2949.3724  1
81.65  2973.3292  1
81.6  2991.9639  1
81.55  2988.8049  1
81.5  2842.2949  1
81.45  2835.6074  1
81.4  2867.6672  1
81.35  3025.202  1
81.3  2932.1085  1
81.25  3054.272  1
81.2  2894.3691  1
81.15  2915.3342  1
81.1  2846.5088  1
81.05  2811.9161  1
81  2757.3433  1
80.95  2799.2663  1
80.9  2964.9133  1
80.85  2808.7722  1
80.8  2881.7657  1
80.75  2857.4745  1
80.7  2921.5898  1
80.65  2821.8475  1
80.6  2941.4702  1
80.55  2888.7743  1
80.5  2902.4754  1
80.45  2809.5975  1
80.4  2854.7575  1
80.35  2893.9704  1
80.3  2838.9118  1
80.25  2737.5059  1
80.2  2830.8675  1
80.15  2807.4208  1
80.1  2793.0685  1
80.05  2715.4606  1
80  2874.1395  1

# Region:                       VB (2)
# Spectrum ID:                  24
# Acquisition Date:             06/10/22 20:06:08 UTC
# Analysis Method:              XPS
# Analyzer Lens:                MediumArea:3.5kV
# Analyzer Slit:                5:7x20\B:open
# Scan Mode:                    FixedAnalyzerTransmission
# Curves/Scan:                  1
# Values/Curve:                 281
# Dwell Time:                   0.1
# Excitation Energy:            1486.71
# Binding Energy:               12
# Pass Energy:                  20
# Bias Voltage:                 90
# Detector Voltage:             1750
# Eff. Workfunction:            4.341
# Source:                       Focus
# Comment:                      10'irrad

# Cycle: 0
#
# Number of Scans: 5

# Cycle: 0, Curve: 0
#
# Acquisition Date:             06/10/22 20:06:08 UTC
# ColumnLabels:                 energy counts/s transmission
#
12  1155.0785  1
11.95  1149.8981  1
11.9  1192.5652  1
11.85  1166.9769  1
11.8  1109.3586  1
11.75  1106.5912  1
11.7  1107.9087  1
11.65  1166.8249  1
11.6  1118.3399  1
11.55  1133.0096  1
11.5  1188.1947  1
11.45  1262.6205  1
11.4  1171.3708  1
11.35  1188.6032  1
11.3  1208.5074  1
11.25  1262.8884  1
11.2  1241.64  1
11.15  1281.6058  1
11.1  1239.2758  1
11.05  1256.497  1
11  1255.7495  1
10.95  1307.5091  1
10.9  1287.512  1
10.85  1319.5378  1
10.8  1329.1008  1
10.75  1320.8908  1
10.7  1290.2287  1
10.65  1401.8934  1
10.6  1447.352  1
10.55  1421.0776  1
10.5  1377.3651  1
10.45  1388.9478  1
10.4  1381.3589  1
10.35  1533.3443  1
10.3  1627.1658  1
10.25  1583.2404  1
10.2  1577.3151  1
10.15  1627.7087  1
10.1  1700.5998  1
10.05  1789.6248  1
10  1820.6253  1
9.95  1848.7035  1
9.9  1928.0448  1
9.85  1986.723  1
9.8  1981.9689  1
9.75  2181.3318  1
9.7  2387.7618  1
9.65  2418.9016  1
9.6  2628.0777  1
9.55  2779.6835  1
9.5  2872.5178  1
9.45  3010.3832  1
9.4  3415.3276  1
9.35  3606.4315  1
9.3  3633.3663  1
9.25  3936.6102  1
9.2  4249.3575  1
9.15  4290.5698  1
9.1  4544.1865  1
9.05  4769.4645  1
9  4958.8115  1
8.95  5155.8422  1
8.9  5441.1371  1
8.85  5586.7497  1
8.8  5471.2159  1
8.75  5621.1694  1
8.7  5786.3998  1
8.65  5849.8622  1
8.6  5926.5305  1
8.55  5927.7269  1
8.5  6114.4336  1
8.45  6498.308  1
8.4  6370.3567  1
8.35  6344.2868  1
8.3  6481.6073  1
8.25  6632.9416  1
8.2  6734.7568  1
8.15  7007.9972  1
8.1  7099.1066  1
8.05  7290.2815  1
8  7561.9452  1
7.95  7669.9915  1
7.9  7670.1304  1
7.85  7875.4079  1
7.8  7556.9347  1
7.75  7490.5391  1
7.7  7176.0879  1
7.65  7024.8614  1
7.6  6654.1406  1
7.55  6294.8935  1
7.5  5922.4745  1
7.45  5813.726  1
7.4  5458.436  1
7.35  5383.0084  1
7.3  5200.7956  1
7.25  5122.871  1
7.2  5093.0665  1
7.15  4766.1812  1
7.1  4780.816  1
7.05  4866.2419  1
7  4756.678  1
6.95  4792.5964  1
6.9  4729.0847  1
6.85  4748.1915  1
6.8  4886.4458  1
6.75  4791.0801  1
6.7  4934.2957  1
6.65  5105.1992  1
6.6  4970.7321  1
6.55  4814.9099  1
6.5  5014.4548  1
6.45  5076.0511  1
6.4  5107.8185  1
6.35  5215.7929  1
6.3  5610.291  1
6.25  5641.3847  1
6.2  5757.1761  1
6.15  6110.2754  1
6.1  6170.9887  1
6.05  6509.0039  1
6  6633.9986  1
5.95  6632.9764  1
5.9  6583.3367  1
5.85  6731.0471  1
5.8  7100.761  1
5.75  6946.901  1
5.7  7056.3166  1
5.65  7093.8397  1
5.6  7228.6182  1
5.55  7299.2936  1
5.5  7175.4282  1
5.45  7070.1193  1
5.4  7043.3692  1
5.35  7089.8059  1
5.3  7076.932  1
5.25  6860.9789  1
5.2  6795.179  1
5.15  6822.2972  1
5.1  6809.4827  1
5.05  6873.6706  1
5  6947.8716  1
4.95  6865.1086  1
4.9  6670.4287  1
4.85  6735.1192  1
4.8  6920.8808  1
4.75  7075.479  1
4.7  7016.4129  1
4.65  7053.6841  1
4.6  7219.1078  1
4.55  7406.3117  1
4.5  7230.958  1
4.45  7361.42  1
4.4  7357.1974  1
4.35  7518.9196  1
4.3  7493.3484  1
4.25  7485.6359  1
4.2  7016.2843  1
4.15  6799.5417  1
4.1  6632.7131  1
4.05  5987.2086  1
4  5723.3255  1
3.95  5187.716  1
3.9  4626.4149  1
3.85  4118.4968  1
3.8  3652.5959  1
3.75  3376.3375  1
3.7  3003.7427  1
3.65  2639.9668  1
3.6  2376.5982  1
3.55  2115.331  1
3.5  1945.1013  1
3.45  1761.7258  1
3.4  1576.888  1
3.35  1460.1637  1
3.3  1471.9494  1
3.25  1378.0286  1
3.2  1270.3644  1
3.15  1342.208  1
3.1  1258.0335  1
3.05  1169.2539  1
3  1098.9257  1
2.95  1159.2235  1
2.9  1165.0175  1
2.85  1082.9547  1
2.8  1097.4844  1
2.75  1032.3723  1
2.7  1070.0017  1
2.65  971.11248  1
2.6  1070.1473  1
2.55  969.38465  1
2.5  1006.6272  1
2.45  870.70733  1
2.4  826.57918  1
2.35  882.75394  1
2.3  896.50401  1
2.25  861.265  1
2.2  840.84517  1
2.15  842.77367  1
2.1  854.32826  1
2.05  812.38182  1
2  755.3513  1
1.95  744.95272  1
1.9  736.48465  1
1.85  622.28281  1
1.8  567.36694  1
1.75  476.00296  1
1.7  426.04367  1
1.65  362.54029  1
1.6  303.62505  1
1.55  227.81164  1
1.5  171.46348  1
1.45  123.06848  1
1.4  92.241704  1
1.35  69.117694  1
1.3  62.900245  1
1.25  48.199285  1
1.2  31.587872  1
1.15  42.391208  1
1.1  49.159253  1
1.05  34.490187  1
1  41.631816  1
0.95  29.807896  1
0.9  29.993536  1
0.85  22.285234  1
0.8  31.114977  1
0.75  43.712503  1
0.7  41.157774  1
0.65  25.081265  1
0.6  22.677735  1
0.55  19.597536  1
0.5  20.863104  1
0.45  22.48312  1
0.4  25.424963  1
0.35  24.653216  1
0.3  26.352053  1
0.25  36.795224  1
0.2  25.446163  1
0.15  37.765997  1
0.1  33.6622  1
0.05  30.880104  1
0  26.273576  1
-0.05  16.17372  1
-0.1  22.927232  1
-0.15  29.733328  1
-0.2  23.438504  1
-0.25  18.7602  1
-0.3  24.15948  1
-0.35  23.979896  1
-0.4  30.13417  1
-0.45  21.95927  1
-0.5  19.3512  1
-0.55  22.44272  1
-0.6  26.22592  1
-0.65  26.831344  1
-0.7  21.113451  1
-0.75  36.664405  1
-0.8  14.65984  1
-0.85  20.30912  1
-0.9  21.93936  1
-0.95  21.19904  1
-1  15.796  1
-1.05  15.46032  1
-1.1  23.602366  1
-1.15  26.570354  1
-1.2  17.96084  1
-1.25  13.026008  1
-1.3  15.623242  1
-1.35  9.4219104  1
-1.4  15.892064  1
-1.45  19.200224  1
-1.5  20.085536  1
-1.55  16.75208  1
-1.6  16.671096  1
-1.65  19.444744  1
-1.7  26.14952  1
-1.75  19.664216  1
-1.8  19.231  1
-1.85  13.77305  1
-1.9  14.356393  1
-1.95  15.440397  1
-2  13.68448  1

# Region:                       O (2)
# Spectrum ID:                  25
# Acquisition Date:             06/10/22 20:09:37 UTC
# Analysis Method:              XPS
# Analyzer Lens:                MediumArea:3.5kV
# Analyzer Slit:                5:7x20\B:open
# Scan Mode:                    FixedAnalyzerTransmission
# Curves/Scan:                  1
# Values/Curve:                 241
# Dwell Time:                   0.1
# Excitation Energy:            1486.71
# Binding Energy:               539
# Pass Energy:                  20
# Bias Voltage:                 90
# Detector Voltage:             1750
# Eff. Workfunction:            4.341
# Source:                       Focus
# Comment:                      10'irrad

# Cycle: 0
#
# Number of Scans: 5

# Cycle: 0, Curve: 0
#
# Acquisition Date:             06/10/22 20:09:37 UTC
# ColumnLabels:                 energy counts/s transmission
#
539  19834.827  1
538.95  19929.011  1
538.9  20362.172  1
538.85  19911.892  1
538.8  20005.528  1
538.75  19832.512  1
538.7  20086.997  1
538.65  20166.763  1
538.6  19982.646  1
538.55  19976.678  1
538.5  20131.743  1
538.45  19923.938  1
538.4  20057.348  1
538.35  20301.291  1
538.3  19862.715  1
538.25  20467.874  1
538.2  20272.702  1
538.15  20105.69  1
538.1  20295.557  1
538.05  20159.393  1
538  19968.65  1
537.95  20076.3  1
537.9  20460.871  1
537.85  20070.12  1
537.8  20126.17  1
537.75  20039.476  1
537.7  20019.425  1
537.65  19814.065  1
537.6  19731.978  1
537.55  19885.462  1
537.5  20096.027  1
537.45  19909.768  1
537.4  20025.007  1
537.35  19754.156  1
537.3  19690.402  1
537.25  19834  1
537.2  19948.055  1
537.15  20205.118  1
537.1  20110.282  1
537.05  20297.201  1
537  19962.942  1
536.95  20155.936  1
536.9  20044.864  1
536.85  20127.596  1
536.8  20198.623  1
536.75  20601.881  1
536.7  20404.551  1
536.65  20402.761  1
536.6  20213.864  1
536.55  20049.247  1
536.5  20264.223  1
536.45  20260.146  1
536.4  20469.362  1
536.35  20213.002  1
536.3  20671.09  1
536.25  20498.542  1
536.2  20436.626  1
536.15  20736.637  1
536.1  20825.667  1
536.05  20864.44  1
536  21083.726  1
535.95  21003.09  1
535.9  20979.405  1
535.85  21185.896  1
535.8  21263.904  1
535.75  21518.382  1
535.7  21978.827  1
535.65  22139.348  1
535.6  22536.372  1
535.55  22460.624  1
535.5  23167.904  1
535.45  23656.218  1
535.4  24496.346  1
535.35  24865.857  1
535.3  25273.006  1
535.25  25650.369  1
535.2  25984.406  1
535.15  26969.819  1
535.1  27278.984  1
535.05  28267.308  1
535  28782.712  1
534.95  29731.996  1
534.9  30316.446  1
534.85  31153.352  1
534.8  31845.047  1
534.75  32251.067  1
534.7  33069.369  1
534.65  33563.531  1
534.6  34420.323  1
534.55  34577.301  1
534.5  34651.868  1
534.45  35825.37  1
534.4  36033.09  1
534.35  35756.566  1
534.3  35868.732  1
534.25  35635.691  1
534.2  35461.474  1
534.15  34842.957  1
534.1  34494.397  1
534.05  34017.464  1
534  33069.171  1
533.95  32577.808  1
533.9  31840.03  1
533.85  31149.716  1
533.8  29873.309  1
533.75  29286.919  1
533.7  28708.331  1
533.65  27827.415  1
533.6  27473.034  1
533.55  26546.059  1
533.5  25701.674  1
533.45  25032.625  1
533.4  24578.455  1
533.35  24348.95  1
533.3  24079.744  1
533.25  23322.514  1
533.2  22914.402  1
533.15  22409.404  1
533.1  22435.796  1
533.05  22170.928  1
533  21792.432  1
532.95  21554.246  1
532.9  21504.783  1
532.85  21335.572  1
532.8  21083.569  1
532.75  20878.862  1
532.7  21049.631  1
532.65  20643.121  1
532.6  20697.5  1
532.55  20684.554  1
532.5  20674.8  1
532.45  20428.155  1
532.4  20341.123  1
532.35  20469.796  1
532.3  20177.292  1
532.25  19933.941  1
532.2  20073.332  1
532.15  20082.418  1
532.1  19870.835  1
532.05  20042.023  1
532  19974.245  1
531.95  20001.357  1
531.9  19802.103  1
531.85  19880.389  1
531.8  20064.688  1
531.75  19608.375  1
531.7  19511.388  1
531.65  19923.491  1
531.6  20212.41  1
531.55  19823.115  1
531.5  19571.784  1
531.45  19597.903  1
531.4  19613.62  1
531.35  19503.299  1
531.3  19513.741  1
531.25  19642.113  1
531.2  19806.474  1
531.15  19035.276  1
531.1  19476.688  1
531.05  19453.854  1
531  19418.672  1
530.95  19495.919  1
530.9  19142.272  1
530.85  19460.728  1
530.8  19933.727  1
530.75  19348.183  1
530.7  19440.022  1
530.65  19408.275  1
530.6  19178.257  1
530.55  19348.482  1
530.5  19314.699  1
530.45  19372.84  1
530.4  19078.893  1
530.35  19290.753  1
530.3  19047.405  1
530.25  19322.016  1
530.2  19285.48  1
530.15  19015.974  1
530.1  19158.698  1
530.05  19189.021  1
530  19290.739  1
529.95  19651.935  1
529.9  19527.008  1
529.85  19156.421  1
529.8  18807.901  1
529.75  19235.984  1
529.7  19321.472  1
529.65  19315.332  1
529.6  19280.79  1
529.55  19275.417  1
529.5  19295.364  1
529.45  19220.175  1
529.4  19188.929  1
529.35  18913.683  1
529.3  18932.261  1
529.25  19087.859  1
529.2  19343.548  1
529.15  19566.83  1
529.1  19209.885  1
529.05  19065.174  1
529  19047.287  1
528.95  19487.334  1
528.9  19122.241  1
528.85  18811.399  1
528.8  19163.945  1
528.75  19473.121  1
528.7  19349.434  1
528.65  19332.214  1
528.6  19432.194  1
528.55  19162.697  1
528.5  19166.127  1
528.45  19445.614  1
528.4  19085.439  1
528.35  19030.79  1
528.3  19395.087  1
528.25  18813.158  1
528.2  18555.51  1
528.15  19035.605  1
528.1  19230.375  1
528.05  19164.726  1
528  19044.958  1
527.95  19028.705  1
527.9  18746.35  1
527.85  18646.738  1
527.8  18989.584  1
527.75  19207.499  1
527.7  19089.459  1
527.65  19175.328  1
527.6  19355.541  1
527.55  19061.926  1
527.5  18911.971  1
527.45  19242.735  1
527.4  19104.024  1
527.35  19106.69  1
527.3  19128.154  1
527.25  19107.094  1
527.2  19462.55  1
527.15  19496.829  1
527.1  19291.02  1
527.05  19160.439  1
527  19044.836  1

# Region:                       S (3)
# Spectrum ID:                  26
# Acquisition Date:             06/10/22 20:23:11 UTC
# Analysis Method:              XPS
# Analyzer Lens:                MediumArea:3.5kV
# Analyzer Slit:                5:7x20\B:open
# Scan Mode:                    FixedAnalyzerTransmission
# Curves/Scan:                  1
# Values/Curve:                 181
# Dwell Time:                   0.1
# Excitation Energy:            1486.71
# Binding Energy:               168
# Pass Energy:                  20
# Bias Voltage:                 90
# Detector Voltage:             1750
# Eff. Workfunction:            4.341
# Source:                       Focus
# Comment:                      15'irrad

# Cycle: 0
#
# Number of Scans: 30

# Cycle: 0, Curve: 0
#
# Acquisition Date:             06/10/22 20:23:11 UTC
# ColumnLabels:                 energy counts/s transmission
#
168  11392.559  1
167.95  11465.329  1
167.9  11455.476  1
167.85  11399.136  1
167.8  11432.775  1
167.75  11450.393  1
167.7  11438.387  1
167.65  11379.83  1
167.6  11345.218  1
167.55  11469.251  1
167.5  11481.3  1
167.45  11537.939  1
167.4  11475.502  1
167.35  11415.345  1
167.3  11377.74  1
167.25  11494.977  1
167.2  11429.76  1
167.15  11430.385  1
167.1  11396.847  1
167.05  11436.161  1
167  11449.684  1
166.95  11419.141  1
166.9  11347.668  1
166.85  11359.876  1
166.8  11347.58  1
166.75  11392.048  1
166.7  11385.302  1
166.65  11393.653  1
166.6  11489.262  1
166.55  11456.57  1
166.5  11522.674  1
166.45  11535.484  1
166.4  11500.06  1
166.35  11597.281  1
166.3  11550.008  1
166.25  11459.032  1
166.2  11461.672  1
166.15  11313.109  1
166.1  11452.455  1
166.05  11561.005  1
166  11479.998  1
165.95  11528.059  1
165.9  11517.087  1
165.85  11562.579  1
165.8  11626.068  1
165.75  11585.19  1
165.7  11645.817  1
165.65  11595.121  1
165.6  11663.687  1
165.55  11589.478  1
165.5  11630.581  1
165.45  11593.469  1
165.4  11606.594  1
165.35  11544.529  1
165.3  11576.439  1
165.25  11726.975  1
165.2  11711.77  1
165.15  11734.951  1
165.1  11632.634  1
165.05  11650.019  1
165  11769.905  1
164.95  11738.255  1
164.9  11770.87  1
164.85  11711.816  1
164.8  11798.041  1
164.75  11817.479  1
164.7  11749.696  1
164.65  11813.677  1
164.6  11849.861  1
164.55  11742.058  1
164.5  11784.28  1
164.45  11768.757  1
164.4  11818.643  1
164.35  11866.185  1
164.3  11862.808  1
164.25  11880.977  1
164.2  11851.667  1
164.15  11880.127  1
164.1  11838.573  1
164.05  11922.219  1
164  12183.54  1
163.95  12134.655  1
163.9  12098.641  1
163.85  12103.508  1
163.8  12081.287  1
163.75  12050.441  1
163.7  12014.776  1
163.65  12098.897  1
163.6  12051.206  1
163.55  11968.599  1
163.5  11913.464  1
163.45  12055.726  1
163.4  11936.541  1
163.35  11768.959  1
163.3  11819.503  1
163.25  11843.797  1
163.2  11900.487  1
163.15  11894.475  1
163.1  11965.254  1
163.05  12024.268  1
163  12037.53  1
162.95  11957.052  1
162.9  11950.796  1
162.85  12151.981  1
162.8  12125.345  1
162.75  12034.026  1
162.7  12069.84  1
162.65  12093.158  1
162.6  11984.786  1
162.55  11818.042  1
162.5  11828.693  1
162.45  11709.606  1
162.4  11671.542  1
162.35  11679.117  1
162.3  11577.592  1
162.25  11502.271  1
162.2  11587.002  1
162.15  11600.36  1
162.1  11609.59  1
162.05  11476.765  1
162  11383.504  1
161.95  11489.966  1
161.9  11341.194  1
161.85  11393.116  1
161.8  11480.028  1
161.75  11409.093  1
161.7  11443.62  1
161.65  11494.399  1
161.6  11530.775  1
161.55  11533.613  1
161.5  11454.165  1
161.45  11445.485  1
161.4  11550.223  1
161.35  11535.648  1
161.3  11458.895  1
161.25  11493.557  1
161.2  11440.855  1
161.15  11463.99  1
161.1  11466.579  1
161.05  11462.07  1
161  11454.599  1
160.95  11380.091  1
160.9  11465.107  1
160.85  11376.685  1
160.8  11494.698  1
160.75  11537.076  1
160.7  11428.766  1
160.65  11489.635  1
160.6  11530.366  1
160.55  11506.408  1
160.5  11525.336  1
160.45  11568.451  1
160.4  11589.501  1
160.35  11502.75  1
160.3  11485.262  1
160.25  11517.299  1
160.2  11532.381  1
160.15  11604.648  1
160.1  11508.589  1
160.05  11578.87  1
160  11532.29  1
159.95  11454.887  1
159.9  11568.94  1
159.85  11725.571  1
159.8  11740.415  1
159.75  11728.489  1
159.7  11556.982  1
159.65  11495.637  1
159.6  11605.806  1
159.55  11605.755  1
159.5  11659.506  1
159.45  11600.976  1
159.4  11542.326  1
159.35  11545.499  1
159.3  11492.651  1
159.25  11581.949  1
159.2  11563.375  1
159.15  11605.879  1
159.1  11622.33  1
159.05  11699.592  1
159  11792.786  1

# Region:                       C (3)
# Spectrum ID:                  27
# Acquisition Date:             06/10/22 20:38:52 UTC
# Analysis Method:              XPS
# Analyzer Lens:                MediumArea:3.5kV
# Analyzer Slit:                5:7x20\B:open
# Scan Mode:                    FixedAnalyzerTransmission
# Curves/Scan:                  1
# Values/Curve:                 201
# Dwell Time:                   0.1
# Excitation Energy:            1486.71
# Binding Energy:               290
# Pass Energy:                  20
# Bias Voltage:                 90
# Detector Voltage:             1750
# Eff. Workfunction:            4.341
# Source:                       Focus
# Comment:                      15'irrad

# Cycle: 0
#
# Number of Scans: 6

# Cycle: 0, Curve: 0
#
# Acquisition Date:             06/10/22 20:38:52 UTC
# ColumnLabels:                 energy counts/s transmission
#
290  9605.2291  1
289.95  9840.2564  1
289.9  9849.2169  1
289.85  9950.5168  1
289.8  9705.8531  1
289.75  9815.2729  1
289.7  9652.4295  1
289.65  9657.6043  1
289.6  9564.2825  1
289.55  9684.4074  1
289.5  9804.6454  1
289.45  9685.6918  1
289.4  9662.159  1
289.35  9786.5773  1
289.3  9872.0398  1
289.25  9707.2489  1
289.2  9651.2529  1
289.15  9891.4059  1
289.1  9724.4981  1
289.05  9942.6197  1
289  9738.1102  1
288.95  9967.786  1
288.9  9937.6365  1
288.85  9677.4704  1
288.8  9785.6803  1
288.75  9681.256  1
288.7  9904.0215  1
288.65  9980.8368  1
288.6  10047.391  1
288.55  10262.056  1
288.5  10153.805  1
288.45  10046.583  1
288.4  10150.032  1
288.35  9989.1357  1
288.3  10127.602  1
288.25  10093.923  1
288.2  10149.01  1
288.15  9933.8939  1
288.1  10080.049  1
288.05  10203.33  1
288  10366.536  1
287.95  10361.704  1
287.9  10288.442  1
287.85  10466.387  1
287.8  10474.858  1
287.75  10472.852  1
287.7  10406.808  1
287.65  10389.345  1
287.6  10406.577  1
287.55  10144.082  1
287.5  10481.097  1
287.45  10317.657  1
287.4  10341.541  1
287.35  10617.869  1
287.3  10528.297  1
287.25  10543.609  1
287.2  10514.662  1
287.15  10548.49  1
287.1  10605.894  1
287.05  10515.36  1
287  10530.337  1
286.95  10718.524  1
286.9  10628.136  1
286.85  10585.53  1
286.8  10410.895  1
286.75  10802.808  1
286.7  10788.179  1
286.65  10901.614  1
286.6  10873.97  1
286.55  10841.782  1
286.5  10855.004  1
286.45  11017.476  1
286.4  10883.553  1
286.35  10983.271  1
286.3  10934.078  1
286.25  10939.882  1
286.2  10876.185  1
286.15  10871.393  1
286.1  11026.955  1
286.05  11115.382  1
286  11058.171  1
285.95  11188.195  1
285.9  11189.929  1
285.85  11389.351  1
285.8  11280.252  1
285.75  11007.446  1
285.7  10891.571  1
285.65  10786.132  1
285.6  10633.134  1
285.55  10615.403  1
285.5  10529.784  1
285.45  10666.281  1
285.4  10465.687  1
285.35  10519.335  1
285.3  10371.491  1
285.25  10192.248  1
285.2  10169.094  1
285.15  9869.0256  1
285.1  9705.8194  1
285.05  9885.3139  1
285  9924.149  1
284.95  9950.8763  1
284.9  9812.7377  1
284.85  9514.2037  1
284.8  9600.3766  1
284.75  9633.098  1
284.7  9817.9741  1
284.65  9725.8517  1
284.6  9283.1445  1
284.55  9582.2959  1
284.5  9851.1638  1
284.45  9750.6084  1
284.4  9703.5407  1
284.35  9426.6993  1
284.3  9580.0165  1
284.25  9522.0068  1
284.2  9391.778  1
284.15  9528.2635  1
284.1  9408.2672  1
284.05  9505.7297  1
284  9549.587  1
283.95  9554.5934  1
283.9  9571.7802  1
283.85  9544.4889  1
283.8  9544.4483  1
283.75  9434.2228  1
283.7  9426.5685  1
283.65  9687.3963  1
283.6  9677.8372  1
283.55  9502.9978  1
283.5  9596.9073  1
283.45  9508.339  1
283.4  9476.4731  1
283.35  9609.1414  1
283.3  9443.8845  1
283.25  9524.5369  1
283.2  9614.1307  1
283.15  9394.7059  1
283.1  9607.7795  1
283.05  9620.7112  1
283  9463.4048  1
282.95  9456.1973  1
282.9  9546.8801  1
282.85  9585.5528  1
282.8  9615.6696  1
282.75  9615.0667  1
282.7  9471.0366  1
282.65  9531.2983  1
282.6  9295.7576  1
282.55  9463.665  1
282.5  9589.9499  1
282.45  9526.4052  1
282.4  9612.1311  1
282.35  9529.1751  1
282.3  9487.6783  1
282.25  9663.3915  1
282.2  9741.5932  1
282.15  9505.4725  1
282.1  9690.1327  1
282.05  9536.5489  1
282  9404.9711  1
281.95  9549.864  1
281.9  9500.0964  1
281.85  9433.9565  1
281.8  9420.793  1
281.75  9543.2986  1
281.7  9633.4885  1
281.65  9396.2306  1
281.6  9563.3566  1
281.55  9804.6718  1
281.5  9583.9853  1
281.45  9438.0267  1
281.4  9404.9108  1
281.35  9568.1286  1
281.3  9395.1237  1
281.25  9401.393  1
281.2  9501.7609  1
281.15  9563.5445  1
281.1  9562.1082  1
281.05  9707.6905  1
281  9620.3381  1
280.95  9548.525  1
280.9  9458.6315  1
280.85  9581.786  1
280.8  9466.9973  1
280.75  9373.6475  1
280.7  9517.6318  1
280.65  9657.4518  1
280.6  9624.4818  1
280.55  9577.4752  1
280.5  9578.4632  1
280.45  9585.7358  1
280.4  9538.5024  1
280.35  9576.8619  1
280.3  9474.0088  1
280.25  9573.9014  1
280.2  9362.0095  1
280.15  9371.1831  1
280.1  9546.0821  1
280.05  9582.5597  1
280  9725.3383  1

# Region:                       Au (3)
# Spectrum ID:                  28
# Acquisition Date:             06/10/22 20:42:49 UTC
# Analysis Method:              XPS
# Analyzer Lens:                MediumArea:3.5kV
# Analyzer Slit:                5:7x20\B:open
# Scan Mode:                    FixedAnalyzerTransmission
# Curves/Scan:                  1
# Values/Curve:                 281
# Dwell Time:                   0.1
# Excitation Energy:            1486.71
# Binding Energy:               94
# Pass Energy:                  20
# Bias Voltage:                 90
# Detector Voltage:             1750
# Eff. Workfunction:            4.341
# Source:                       Focus
# Comment:                      15'irrad

# Cycle: 0
#
# Number of Scans: 5

# Cycle: 0, Curve: 0
#
# Acquisition Date:             06/10/22 20:42:49 UTC
# ColumnLabels:                 energy counts/s transmission
#
94  9969.9669  1
93.95  10016.456  1
93.9  10208.416  1
93.85  9941.1875  1
93.8  9934.8275  1
93.75  10135.965  1
93.7  9985.236  1
93.65  9900.7041  1
93.6  9998.3211  1
93.55  9662.2396  1
93.5  10065.17  1
93.45  10084.355  1
93.4  9851.4993  1
93.35  10106.759  1
93.3  10143.519  1
93.25  10275.061  1
93.2  10256.789  1
93.15  10548.062  1
93.1  10493.158  1
93.05  10503.811  1
93  10457.848  1
92.95  10271.943  1
92.9  10284.366  1
92.85  10660.887  1
92.8  10865.995  1
92.75  10877.994  1
92.7  10852.78  1
92.65  10939.332  1
92.6  11063.63  1
92.55  11012.159  1
92.5  10946.392  1
92.45  10937.252  1
92.4  11138.992  1
92.35  11211.591  1
92.3  11157.404  1
92.25  11431.392  1
92.2  11254.542  1
92.15  11368.296  1
92.1  11535.459  1
92.05  11601.522  1
92  11492.196  1
91.95  11332.375  1
91.9  11462.732  1
91.85  11590.333  1
91.8  11723.339  1
91.75  11493.317  1
91.7  11637.74  1
91.65  11684.002  1
91.6  11478.654  1
91.55  11797.819  1
91.5  11686.219  1
91.45  11529.798  1
91.4  11630.401  1
91.35  11798.229  1
91.3  11975.736  1
91.25  11933.754  1
91.2  12067.596  1
91.15  12012.975  1
91.1  12215.754  1
91.05  12385.875  1
91  12653.126  1
90.95  12803.784  1
90.9  13001.472  1
90.85  13337.091  1
90.8  13809.333  1
90.75  13877.336  1
90.7  14434.884  1
90.65  14692.535  1
90.6  15015.514  1
90.55  15767.4  1
90.5  16602.118  1
90.45  16874.866  1
90.4  17804.837  1
90.35  18731.27  1
90.3  19717.195  1
90.25  20536.782  1
90.2  22028.464  1
90.15  23651.614  1
90.1  25988.553  1
90.05  28017.404  1
90  30969.508  1
89.95  34886.547  1
89.9  38951.857  1
89.85  44312.128  1
89.8  51067.209  1
89.75  59326.646  1
89.7  67684.542  1
89.65  77976.256  1
89.6  89335.475  1
89.55  100429.07  1
89.5  111711.68  1
89.45  123162.44  1
89.4  131380.87  1
89.35  136801.9  1
89.3  140573.42  1
89.25  139324.75  1
89.2  133552.45  1
89.15  124213.56  1
89.1  111675.44  1
89.05  97065.924  1
89  81833.828  1
88.95  68859.16  1
88.9  56900.818  1
88.85  47451.254  1
88.8  39920.802  1
88.75  33943.264  1
88.7  29115.601  1
88.65  25842.621  1
88.6  23078.988  1
88.55  20847.306  1
88.5  19572.855  1
88.45  17823.202  1
88.4  16839.067  1
88.35  15800.55  1
88.3  15192.392  1
88.25  14406.016  1
88.2  14144.694  1
88.15  13751.942  1
88.1  13409.621  1
88.05  12984.85  1
88  12732.156  1
87.95  12291.984  1
87.9  12118.362  1
87.85  11675.827  1
87.8  11611.656  1
87.75  11547.528  1
87.7  11367.918  1
87.65  11317.773  1
87.6  11368.896  1
87.55  11276.46  1
87.5  11257.76  1
87.45  11229.854  1
87.4  11267.54  1
87.35  11401.3  1
87.3  11939.316  1
87.25  11934.42  1
87.2  12137.273  1
87.15  12347.546  1
87.1  12644.002  1
87.05  12911.4  1
87  13322.218  1
86.95  13881.802  1
86.9  14298.209  1
86.85  15125.331  1
86.8  15930.567  1
86.75  16832.844  1
86.7  17467.362  1
86.65  18754.624  1
86.6  20464.813  1
86.55  21644.911  1
86.5  22997.535  1
86.45  25475.835  1
86.4  28161.158  1
86.35  31391.271  1
86.3  35381.542  1
86.25  40590.437  1
86.2  47264.007  1
86.15  54538.881  1
86.1  63467.893  1
86.05  74409.984  1
86  87264.966  1
85.95  101350.72  1
85.9  115655.88  1
85.85  130883.58  1
85.8  145942.3  1
85.75  159215.46  1
85.7  167636.96  1
85.65  174279.26  1
85.6  177091.09  1
85.55  172738.69  1
85.5  162918.4  1
85.45  147235.44  1
85.4  128516.01  1
85.35  108666.92  1
85.3  90781.425  1
85.25  73701.572  1
85.2  59338.737  1
85.15  48165.543  1
85.1  39712.898  1
85.05  32961.622  1
85  27527.245  1
84.95  23582.575  1
84.9  20348.312  1
84.85  17595.585  1
84.8  15885.376  1
84.75  14256.925  1
84.7  12763.538  1
84.65  11620.637  1
84.6  10734.064  1
84.55  10216.977  1
84.5  9413.2022  1
84.45  8625.7327  1
84.4  8071.2564  1
84.35  7822.0845  1
84.3  7310.6756  1
84.25  7037.3775  1
84.2  6579.6247  1
84.15  6393.2956  1
84.1  6265.0506  1
84.05  5901.5393  1
84  5805.3535  1
83.95  5521.4253  1
83.9  5295.9315  1
83.85  5231.1301  1
83.8  5172.3683  1
83.75  5010.0574  1
83.7  5072.8316  1
83.65  4849.4535  1
83.6  4696.1005  1
83.55  4477.31  1
83.5  4434.2488  1
83.45  4316.2711  1
83.4  4299.2842  1
83.35  4183.0238  1
83.3  4048.9291  1
83.25  3947.2212  1
83.2  3875.7849  1
83.15  3911.5158  1
83.1  3903.1478  1
83.05  3793.1366  1
83  3651.1072  1
82.95  3674.2291  1
82.9  3682.2124  1
82.85  3683.5578  1
82.8  3789.5983  1
82.75  3503.4628  1
82.7  3548.6395  1
82.65  3411.5292  1
82.6  3306.1129  1
82.55  3410.6512  1
82.5  3390.7466  1
82.45  3329.0935  1
82.4  3389.2979  1
82.35  3265.6519  1
82.3  3324.2434  1
82.25  3272.9689  1
82.2  3214.7033  1
82.15  3137.415  1
82.1  3233.919  1
82.05  3108.8901  1
82  3076.1918  1
81.95  3107.965  1
81.9  3048.1393  1
81.85  3010.266  1
81.8  2966.0907  1
81.75  3006.9537  1
81.7  3070.9019  1
81.65  3035.7211  1
81.6  2961.531  1
81.55  3095.5035  1
81.5  3114.304  1
81.45  2956.1004  1
81.4  2992.6243  1
81.35  2849.9531  1
81.3  2973.0842  1
81.25  2981.1204  1
81.2  2894.3177  1
81.15  2997.2427  1
81.1  3024.6435  1
81.05  2898.5277  1
81  2809.4826  1
80.95  2901.179  1
80.9  2846.4949  1
80.85  2850.974  1
80.8  2873.1001  1
80.75  2932.822  1
80.7  2886.9872  1
80.65  2926.8202  1
80.6  2901.0379  1
80.55  2770.3224  1
80.5  2769.5971  1
80.45  2819.2163  1
80.4  2813.9917  1
80.35  2722.2208  1
80.3  2779.3391  1
80.25  2874.4968  1
80.2  2824.3627  1
80.15  2694.8524  1
80.1  2636.0953  1
80.05  2703.6469  1
80  2674.4591  1

# Region:                       VB (3)
# Spectrum ID:                  29
# Acquisition Date:             06/10/22 20:46:44 UTC
# Analysis Method:              XPS
# Analyzer Lens:                MediumArea:3.5kV
# Analyzer Slit:                5:7x20\B:open
# Scan Mode:                    FixedAnalyzerTransmission
# Curves/Scan:                  1
# Values/Curve:                 281
# Dwell Time:                   0.1
# Excitation Energy:            1486.71
# Binding Energy:               12
# Pass Energy:                  20
# Bias Voltage:                 90
# Detector Voltage:             1750
# Eff. Workfunction:            4.341
# Source:                       Focus
# Comment:                      15'irrad

# Cycle: 0
#
# Number of Scans: 5

# Cycle: 0, Curve: 0
#
# Acquisition Date:             06/10/22 20:46:44 UTC
# ColumnLabels:                 energy counts/s transmission
#
12  1093.5099  1
11.95  1037.086  1
11.9  1158.0549  1
11.85  1131.273  1
11.8  1125.9862  1
11.75  1171.4502  1
11.7  1163.9148  1
11.65  1172.5429  1
11.6  1193.0895  1
11.55  1280.1453  1
11.5  1167.3595  1
11.45  1177.1425  1
11.4  1244.8171  1
11.35  1144.9267  1
11.3  1264.9508  1
11.25  1212.5458  1
11.2  1197.112  1
11.15  1158.9343  1
11.1  1188.4304  1
11.05  1247.6738  1
11  1239.6879  1
10.95  1285.1113  1
10.9  1264.2186  1
10.85  1335.6611  1
10.8  1358.3281  1
10.75  1378.5412  1
10.7  1351.6875  1
10.65  1393.3792  1
10.6  1358.0211  1
10.55  1384.9552  1
10.5  1453.902  1
10.45  1455.0572  1
10.4  1496.3543  1
10.35  1524.6969  1
10.3  1635.9664  1
10.25  1676.6398  1
10.2  1652.7659  1
10.15  1674.7266  1
10.1  1725.2493  1
10.05  1763.5568  1
10  1705.7977  1
9.95  1775.2258  1
9.9  1918.6127  1
9.85  1971.8381  1
9.8  2058.5637  1
9.75  2288.2677  1
9.7  2357.1716  1
9.65  2469.8717  1
9.6  2607.5767  1
9.55  2803.9178  1
9.5  2947.5199  1
9.45  3093.0479  1
9.4  3322.9485  1
9.35  3472.1313  1
9.3  3673.8647  1
9.25  3916.0102  1
9.2  4266.4721  1
9.15  4513.3462  1
9.1  4712.1184  1
9.05  5022.288  1
9  4987.2373  1
8.95  5102.9919  1
8.9  5184.7656  1
8.85  5532.9908  1
8.8  5735.0453  1
8.75  5775.8773  1
8.7  5911.6068  1
8.65  6022.8926  1
8.6  6026.3656  1
8.55  5990.8852  1
8.5  6199.4933  1
8.45  6275.9472  1
8.4  6472.9039  1
8.35  6581.6705  1
8.3  6641.6105  1
8.25  6771.2287  1
8.2  6857.297  1
8.15  6937.5374  1
8.1  7256.3296  1
8.05  7226.306  1
8  7425.3201  1
7.95  7476.1439  1
7.9  7710.84  1
7.85  7485.8879  1
7.8  7487.7149  1
7.75  7362.6154  1
7.7  7187.7137  1
7.65  6840.5519  1
7.6  6441.7208  1
7.55  6193.8312  1
7.5  6050.1687  1
7.45  5737.5642  1
7.4  5540.6683  1
7.35  5414.6989  1
7.3  5279.3911  1
7.25  5090.5942  1
7.2  5011.5169  1
7.15  4968.0314  1
7.1  4860.8774  1
7.05  4911.5864  1
7  4937.6598  1
6.95  4685.0958  1
6.9  4643.4209  1
6.85  4652.2319  1
6.8  4726.1617  1
6.75  4757.8378  1
6.7  4860.3622  1
6.65  4866.8201  1
6.6  4985.0557  1
6.55  5005.649  1
6.5  4976.6221  1
6.45  5043.1264  1
6.4  5223.262  1
6.35  5420.9116  1
6.3  5563.899  1
6.25  5522.7592  1
6.2  5792.347  1
6.15  6048.0013  1
6.1  6127.8206  1
6.05  6445.3304  1
6  6681.9989  1
5.95  6582.3836  1
5.9  6748.797  1
5.85  6896.1773  1
5.8  7140.5586  1
5.75  7132.155  1
5.7  7331.5597  1
5.65  7184.5366  1
5.6  7061.2573  1
5.55  7072.9409  1
5.5  7173.7239  1
5.45  7185.8633  1
5.4  7218.7131  1
5.35  6977.7251  1
5.3  7067.7248  1
5.25  7205.5381  1
5.2  6868.6711  1
5.15  6743.0401  1
5.1  6849.1994  1
5.05  6954.4032  1
5  6966.9536  1
4.95  7158.8525  1
4.9  6992.3631  1
4.85  6734.3372  1
4.8  6813.2287  1
4.75  6910.3778  1
4.7  6964.0028  1
4.65  6966.2282  1
4.6  7101.4972  1
4.55  7388.9461  1
4.5  7409.1858  1
4.45  7538.9948  1
4.4  7441.1234  1
4.35  7320.8526  1
4.3  7505.5178  1
4.25  7547.9788  1
4.2  7497.4052  1
4.15  7171.7068  1
4.1  6702.4697  1
4.05  6078.3823  1
4  5647.387  1
3.95  5175.678  1
3.9  4683.1257  1
3.85  4191.3399  1
3.8  3671.1636  1
3.75  3288.6558  1
3.7  2872.5766  1
3.65  2616.2115  1
3.6  2346.6107  1
3.55  2152.2884  1
3.5  1836.4059  1
3.45  1761.3722  1
3.4  1655.6103  1
3.35  1558.8166  1
3.3  1414.0646  1
3.25  1342.6214  1
3.2  1341.6635  1
3.15  1228.8481  1
3.1  1179.529  1
3.05  1193.4025  1
3  1244.2061  1
2.95  1182.8435  1
2.9  1102.8094  1
2.85  1035.5917  1
2.8  1007.3256  1
2.75  999.60921  1
2.7  982.85358  1
2.65  1063.4238  1
2.6  1075.7814  1
2.55  965.35999  1
2.5  954.48909  1
2.45  882.17399  1
2.4  837.92313  1
2.35  836.36202  1
2.3  905.25017  1
2.25  935.5212  1
2.2  910.99383  1
2.15  821.81443  1
2.1  758.77715  1
2.05  795.7697  1
2  784.94414  1
1.95  735.16457  1
1.9  673.76496  1
1.85  610.64541  1
1.8  547.81751  1
1.75  510.8337  1
1.7  439.34405  1
1.65  388.4419  1
1.6  328.07255  1
1.55  222.56622  1
1.5  167.51203  1
1.45  110.38063  1
1.4  85.726131  1
1.35  63.778096  1
1.3  57.149053  1
1.25  46.366976  1
1.2  43.391848  1
1.15  31.993651  1
1.1  40.643037  1
1.05  40.383851  1
1  41.380096  1
0.95  35.779077  1
0.9  48.638536  1
0.85  31.73036  1
0.8  28.61  1
0.75  30.971392  1
0.7  34.568368  1
0.65  28.93  1
0.6  19.05604  1
0.55  25.360472  1
0.5  23.634448  1
0.45  37.45497  1
0.4  37.25275  1
0.35  41.4796  1
0.3  29.44229  1
0.25  20.555113  1
0.2  22.51348  1
0.15  23.13548  1
0.1  19.765365  1
0.05  19.527546  1
0  26.94299  1
-0.05  31.010976  1
-0.1  33.489584  1
-0.15  27.775616  1
-0.2  15.75304  1
-0.25  22.434883  1
-0.3  26.801274  1
-0.35  24.345043  1
-0.4  28.581888  1
-0.45  30.891275  1
-0.5  19.542597  1
-0.55  13.18536  1
-0.6  22.46916  1
-0.65  21.335368  1
-0.7  17.792672  1
-0.75  14.723606  1
-0.8  23.465354  1
-0.85  21.088624  1
-0.9  24.588816  1
-0.95  20.770864  1
-1  14.51264  1
-1.05  30.958016  1
-1.1  20.09564  1
-1.15  15.65444  1
-1.2  18.30944  1
-1.25  19.664104  1
-1.3  13.166264  1
-1.35  21.759312  1
-1.4  19.954304  1
-1.45  13.135683  1
-1.5  13.913536  1
-1.55  16.820037  1
-1.6  10.99956  1
-1.65  14.2554  1
-1.7  14.52188  1
-1.75  12.539392  1
-1.8  14.986712  1
-1.85  18.081736  1
-1.9  12.51312  1
-1.95  10.106504  1
-2  13.802539  1

# Region:                       O (3)
# Spectrum ID:                  30
# Acquisition Date:             06/10/22 20:50:16 UTC
# Analysis Method:              XPS
# Analyzer Lens:                MediumArea:3.5kV
# Analyzer Slit:                5:7x20\B:open
# Scan Mode:                    FixedAnalyzerTransmission
# Curves/Scan:                  1
# Values/Curve:                 241
# Dwell Time:                   0.1
# Excitation Energy:            1486.71
# Binding Energy:               539
# Pass Energy:                  20
# Bias Voltage:                 90
# Detector Voltage:             1750
# Eff. Workfunction:            4.341
# Source:                       Focus
# Comment:                      15'irrad

# Cycle: 0
#
# Number of Scans: 5

# Cycle: 0, Curve: 0
#
# Acquisition Date:             06/10/22 20:50:16 UTC
# ColumnLabels:                 energy counts/s transmission
#
539  20474.427  1
538.95  20515.805  1
538.9  20359.855  1
538.85  20226.471  1
538.8  20073.642  1
538.75  20049.846  1
538.7  20154.578  1
538.65  20032.832  1
538.6  20035.714  1
538.55  19952.325  1
538.5  20017.429  1
538.45  20356.653  1
538.4  20023.717  1
538.35  20099.602  1
538.3  20082.131  1
538.25  20148.791  1
538.2  20283.229  1
538.15  20117.97  1
538.1  20064.026  1
538.05  20270.479  1
538  20271.845  1
537.95  20274.635  1
537.9  20113.588  1
537.85  20225.894  1
537.8  20029.763  1
537.75  20036.07  1
537.7  20102.431  1
537.65  19967.193  1
537.6  19939.949  1
537.55  19816.44  1
537.5  19959.414  1
537.45  20058.306  1
537.4  20095.364  1
537.35  20384.01  1
537.3  20153.254  1
537.25  19977.986  1
537.2  19900.327  1
537.15  20038.724  1
537.1  20216.242  1
537.05  20155.585  1
537  20233.292  1
536.95  20231.859  1
536.9  20478.234  1
536.85  20191.85  1
536.8  20175.718  1
536.75  20115.836  1
536.7  20240.58  1
536.65  20113.638  1
536.6  20094.692  1
536.55  20014.953  1
536.5  20524.194  1
536.45  20461.128  1
536.4  20090.472  1
536.35  20074.871  1
536.3  20338.686  1
536.25  20306.414  1
536.2  20453.948  1
536.15  20733.484  1
536.1  20778.046  1
536.05  20632.239  1
536  21004.401  1
535.95  20942.541  1
535.9  20959.416  1
535.85  20958.466  1
535.8  21433.289  1
535.75  21324.047  1
535.7  21882.623  1
535.65  22157.213  1
535.6  22660.58  1
535.55  22928.498  1
535.5  23094.891  1
535.45  23221.983  1
535.4  23595.719  1
535.35  23932.041  1
535.3  24761.156  1
535.25  25505.449  1
535.2  25888.743  1
535.15  26187.48  1
535.1  27125.655  1
535.05  27902.593  1
535  28414.742  1
534.95  29128.255  1
534.9  29556.054  1
534.85  30190.86  1
534.8  31213.585  1
534.75  32005.822  1
534.7  32620.98  1
534.65  32806.083  1
534.6  33856.456  1
534.55  34806.097  1
534.5  35073.317  1
534.45  35236.408  1
534.4  35437.255  1
534.35  35401.678  1
534.3  35951.476  1
534.25  35445.837  1
534.2  35372.415  1
534.15  35239.268  1
534.1  34718.816  1
534.05  34274.032  1
534  33563.366  1
533.95  33046.235  1
533.9  32085.5  1
533.85  31284.685  1
533.8  30713.198  1
533.75  30112.618  1
533.7  28930.571  1
533.65  28393.388  1
533.6  27723.355  1
533.55  26347.654  1
533.5  26047.972  1
533.45  25343.649  1
533.4  24779.03  1
533.35  24252.304  1
533.3  23804.168  1
533.25  23383.66  1
533.2  22703.161  1
533.15  22642.37  1
533.1  22223.933  1
533.05  22520.499  1
533  22138.52  1
532.95  21505.327  1
532.9  21373.571  1
532.85  21340.916  1
532.8  21464.549  1
532.75  21152.654  1
532.7  20850.09  1
532.65  20794.645  1
532.6  20613.409  1
532.55  20519.778  1
532.5  20138.841  1
532.45  20278.246  1
532.4  20339.772  1
532.35  20512.834  1
532.3  20108.839  1
532.25  20185.796  1
532.2  20198.19  1
532.15  20454.375  1
532.1  20240.202  1
532.05  19747.025  1
532  19716.073  1
531.95  19630.191  1
531.9  19738.289  1
531.85  19510.663  1
531.8  19607.529  1
531.75  19743.534  1
531.7  19822.72  1
531.65  19465.747  1
531.6  19250.556  1
531.55  19670.023  1
531.5  19667.66  1
531.45  19657.44  1
531.4  19575.164  1
531.35  19578.477  1
531.3  19468.827  1
531.25  19185.566  1
531.2  19298.89  1
531.15  19630.323  1
531.1  19753.688  1
531.05  19478.275  1
531  19420.801  1
530.95  19531.087  1
530.9  19474.48  1
530.85  19005.759  1
530.8  19271.688  1
530.75  19645.905  1
530.7  19601.756  1
530.65  19318.22  1
530.6  19126.288  1
530.55  19333.476  1
530.5  19108.055  1
530.45  19268.7  1
530.4  19568.633  1
530.35  19316.126  1
530.3  19311.683  1
530.25  18935.945  1
530.2  19103.689  1
530.15  18972.703  1
530.1  19372.066  1
530.05  19443.587  1
530  19010.66  1
529.95  19174.9  1
529.9  19095.098  1
529.85  19396.766  1
529.8  19216.171  1
529.75  19268.764  1
529.7  19195.166  1
529.65  19054.248  1
529.6  19392.068  1
529.55  19382.664  1
529.5  19119.231  1
529.45  19279.717  1
529.4  19452.165  1
529.35  19317.51  1
529.3  19031.381  1
529.25  19245.983  1
529.2  19654.29  1
529.15  19214.453  1
529.1  19113.215  1
529.05  19057.948  1
529  19098.246  1
528.95  18966.954  1
528.9  19225.998  1
528.85  19489.037  1
528.8  19839.15  1
528.75  19301.473  1
528.7  19281.022  1
528.65  19285.445  1
528.6  19221.605  1
528.55  19528.531  1
528.5  19138.379  1
528.45  18810.306  1
528.4  19163.149  1
528.35  19322.72  1
528.3  19516.855  1
528.25  19229.048  1
528.2  18928.195  1
528.15  18999.73  1
528.1  19066.905  1
528.05  19117.777  1
528  18966.633  1
527.95  18837.092  1
527.9  18961.06  1
527.85  19179.148  1
527.8  19202.293  1
527.75  19278.322  1
527.7  19250.469  1
527.65  19075.525  1
527.6  18954.912  1
527.55  19047.845  1
527.5  19219.253  1
527.45  19121.507  1
527.4  18690.862  1
527.35  19084.987  1
527.3  19123.711  1
527.25  19052.013  1
527.2  19254.394  1
527.15  19168.297  1
527.1  19125.045  1
527.05  19143.163  1
527  19183.07  1

# Group:                        Spectrum Group (2)
#
# Region:                       Spectrum
# Spectrum ID:                  31
# Acquisition Date:             06/10/22 17:52:58 UTC
# Analysis Method:              XPS
# Analyzer Lens:                MediumArea:1.5kV
# Analyzer Slit:                5:7x20\B:open
# Scan Mode:                    FixedEnergies
# Curves/Scan:                  1
# Values/Curve:                 600
# Dwell Time:                   0.1
# Excitation Energy:            1486.71
# Kinetic Energy:               1381.71
# Pass Energy:                  10
# Bias Voltage:                 90
# Detector Voltage:             1750
# Eff. Workfunction:            4.341
# Source:                       Focus
# Comment:                      

# Cycle: 0
#
# Number of Scans: 1

# Cycle: 0, Curve: 0
#
# Acquisition Date:             06/10/22 17:52:58 UTC
# ColumnLabels:                 index counts/s transmission
#
0  4760  1
1  4740  1
2  4780  1
3  4900  1
4  4610  1
5  5030  1
6  5220  1
7  4990  1
8  4980  1
9  4630  1
10  4810  1
11  5260  1
12  5130  1
13  5300  1
14  4810  1
15  4930  1
16  4670  1
17  4800  1
18  4400  1
19  4630  1
20  4880  1
21  4880  1
22  5080  1
23  4480  1
24  4510  1
25  5030  1
26  4960  1
27  5120  1
28  5070  1
29  4650  1
30  5350  1
31  4480  1
32  4780  1
33  4650  1
34  4850  1
35  5170  1
36  4870  1
37  5110  1
38  4790  1
39  4950  1
40  5210  1
41  4680  1
42  4700  1
43  5070  1
44  4540  1
45  4590  1
46  4350  1
47  4900  1
48  4740  1
49  4780  1
50  5500  1
51  5340  1
52  4610  1
53  4850  1
54  4830  1
55  4740  1
56  4500  1
57  4690  1
58  4310  1
59  4960  1
60  4880  1
61  5010  1
62  4530  1
63  4620  1
64  4620  1
65  4600  1
66  4720  1
67  4830  1
68  4780  1
69  4720  1
70  4590  1
71  5000  1
72  4780  1
73  4350  1
74  4710  1
75  5220  1
76  4840  1
77  4500  1
78  5190  1
79  4910  1
80  4720  1
81  4570  1
82  4940  1
83  4880  1
84  4730  1
85  4600  1
86  4260  1
87  4880  1
88  4530  1
89  4320  1
90  4390  1
91  4690  1
92  4600  1
93  4740  1
94  5060  1
95  4830  1
96  4650  1
97  5080  1
98  4930  1
99  4830  1
100  5050  1
101  4570  1
102  4180  1
103  4770  1
104  5240  1
105  4730  1
106  4880  1
107  4800  1
108  4280  1
109  5070  1
110  4750  1
111  4760  1
112  5130  1
113  4810  1
114  4860  1
115  4790  1
116  4630  1
117  4700  1
118  4770  1
119  4830  1
120  4920  1
121  5150  1
122  4990  1
123  4760  1
124  4780  1
125  4600  1
126  4800  1
127  4450  1
128  4880  1
129  4730  1
130  4780  1
131  4820  1
132  4950  1
133  4530  1
134  4570  1
135  4780  1
136  4630  1
137  4820  1
138  4610  1
139  4530  1
140  5000  1
141  5130  1
142  4570  1
143  4840  1
144  4670  1
145  4410  1
146  4910  1
147  4810  1
148  4670  1
149  4430  1
150  4500  1
151  4390  1
152  4930  1
153  4690  1
154  5190  1
155  4840  1
156  4500  1
157  4540  1
158  4610  1
159  4820  1
160  4510  1
161  4780  1
162  4820  1
163  4600  1
164  4980  1
165  4480  1
166  4570  1
167  4220  1
168  4710  1
169  5060  1
170  4460  1
171  4820  1
172  4680  1
173  4590  1
174  4680  1
175  4380  1
176  4880  1
177  4880  1
178  4960  1
179  4560  1
180  4390  1
181  4870  1
182  4840  1
183  4670  1
184  4890  1
185  4620  1
186  4250  1
187  4410  1
188  4060  1
189  4470  1
190  4300  1
191  4280  1
192  4420  1
193  4070  1
194  4620  1
195  3900  1
196  4400  1
197  3700  1
198  4600  1
199  4230  1
200  4040  1
201  4370  1
202  3910  1
203  4140  1
204  3820  1
205  3930  1
206  3930  1
207  3440  1
208  3690  1
209  3480  1
210  3650  1
211  3350  1
212  3120  1
213  3250  1
214  3190  1
215  3060  1
216  2930  1
217  2670  1
218  2920  1
219  2620  1
220  2200  1
221  2420  1
222  2220  1
223  2080  1
224  1890  1
225  1620  1
226  1550  1
227  1740  1
228  1480  1
229  1340  1
230  1350  1
231  1220  1
232  790  1
233  1230  1
234  1120  1
235  1190  1
236  1040  1
237  1070  1
238  1200  1
239  1000  1
240  1010  1
241  1040  1
242  1120  1
243  1370  1
244  1210  1
245  1510  1
246  1510  1
247  1840  1
248  1750  1
249  2100  1
250  2210  1
251  1930  1
252  2270  1
253  2520  1
254  2640  1
255  2200  1
256  3020  1
257  2960  1
258  3180  1
259  3360  1
260  3700  1
261  3220  1
262  3470  1
263  3700  1
264  3470  1
265  3660  1
266  3650  1
267  4410  1
268  3800  1
269  3470  1
270  3550  1
271  3880  1
272  4130  1
273  4150  1
274  4180  1
275  4420  1
276  4360  1
277  4070  1
278  4050  1
279  4490  1
280  4380  1
281  4580  1
282  4140  1
283  4320  1
284  4480  1
285  4690  1
286  5260  1
287  4510  1
288  4560  1
289  4290  1
290  4270  1
291  4450  1
292  4910  1
293  4720  1
294  4650  1
295  4680  1
296  4750  1
297  4810  1
298  4330  1
299  5250  1
300  4760  1
301  4780  1
302  4930  1
303  4920  1
304  5250  1
305  4800  1
306  4680  1
307  4740  1
308  4770  1
309  4820  1
310  4640  1
311  4330  1
312  4830  1
313  4640  1
314  4460  1
315  4820  1
316  4750  1
317  4600  1
318  4280  1
319  4970  1
320  4790  1
321  4660  1
322  4690  1
323  4440  1
324  4510  1
325  4620  1
326  4860  1
327  4330  1
328  4500  1
329  4500  1
330  4360  1
331  4650  1
332  4500  1
333  4060  1
334  4580  1
335  4040  1
336  3920  1
337  4320  1
338  4230  1
339  4290  1
340  4490  1
341  3820  1
342  4190  1
343  3960  1
344  4010  1
345  3550  1
346  4050  1
347  3630  1
348  3950  1
349  3810  1
350  3540  1
351  3300  1
352  3480  1
353  3280  1
354  3160  1
355  3000  1
356  3470  1
357  3060  1
358  2870  1
359  2780  1
360  2520  1
361  2630  1
362  2420  1
363  2280  1
364  2230  1
365  1720  1
366  1890  1
367  1330  1
368  1540  1
369  1490  1
370  1310  1
371  1130  1
372  1000  1
373  760  1
374  860  1
375  890  1
376  1020  1
377  1050  1
378  1110  1
379  980  1
380  1130  1
381  1220  1
382  1230  1
383  1330  1
384  1390  1
385  1520  1
386  1580  1
387  1800  1
388  1850  1
389  2210  1
390  2590  1
391  2440  1
392  2330  1
393  2660  1
394  2480  1
395  2910  1
396  3100  1
397  3010  1
398  2950  1
399  3350  1
400  3090  1
401  3120  1
402  3260  1
403  3690  1
404  3790  1
405  4020  1
406  3670  1
407  3880  1
408  3840  1
409  3670  1
410  3990  1
411  3910  1
412  4060  1
413  4190  1
414  3840  1
415  4060  1
416  4590  1
417  4200  1
418  4250  1
419  4840  1
420  3940  1
421  4580  1
422  4810  1
423  3970  1
424  4140  1
425  4640  1
426  4320  1
427  4740  1
428  4880  1
429  4590  1
430  4980  1
431  4890  1
432  4620  1
433  4100  1
434  4410  1
435  4610  1
436  4550  1
437  4650  1
438  4610  1
439  4750  1
440  4990  1
441  4630  1
442  4950  1
443  4660  1
444  4560  1
445  4810  1
446  4870  1
447  4920  1
448  4590  1
449  4720  1
450  4770  1
451  4790  1
452  4510  1
453  4180  1
454  4750  1
455  4690  1
456  4870  1
457  4860  1
458  4600  1
459  5160  1
460  4440  1
461  4370  1
462  4380  1
463  4550  1
464  4950  1
465  5440  1
466  4410  1
467  4740  1
468  4620  1
469  4430  1
470  4880  1
471  4240  1
472  4700  1
473  4720  1
474  4560  1
475  4590  1
476  4770  1
477  4580  1
478  4080  1
479  4660  1
480  4510  1
481  4480  1
482  4790  1
483  4840  1
484  4670  1
485  4910  1
486  4540  1
487  4250  1
488  4380  1
489  4780  1
490  5090  1
491  4600  1
492  4660  1
493  4980  1
494  4710  1
495  4630  1
496  4570  1
497  4810  1
498  4910  1
499  5050  1
500  4820  1
501  5350  1
502  4550  1
503  4100  1
504  4570  1
505  4590  1
506  4960  1
507  4790  1
508  4700  1
509  4700  1
510  4660  1
511  4820  1
512  4170  1
513  4820  1
514  4360  1
515  5000  1
516  4410  1
517  4310  1
518  4440  1
519  4520  1
520  4230  1
521  4720  1
522  4340  1
523  4060  1
524  4650  1
525  4310  1
526  4730  1
527  4190  1
528  4330  1
529  4600  1
530  4570  1
531  4370  1
532  4550  1
533  4280  1
534  4240  1
535  4430  1
536  4950  1
537  4450  1
538  4300  1
539  4810  1
540  5220  1
541  4400  1
542  4170  1
543  4560  1
544  4670  1
545  4450  1
546  4650  1
547  4420  1
548  4850  1
549  4520  1
550  4040  1
551  4180  1
552  4350  1
553  4790  1
554  4590  1
555  4800  1
556  4490  1
557  4350  1
558  4150  1
559  4600  1
560  4500  1
561  4620  1
562  4250  1
563  4330  1
564  4670  1
565  4130  1
566  4870  1
567  4380  1
568  4320  1
569  4540  1
570  4290  1
571  4410  1
572  4660  1
573  4380  1
574  4160  1
575  5100  1
576  4430  1
577  4520  1
578  4420  1
579  4770  1
580  4530  1
581  4200  1
582  4540  1
583  4030  1
584  4310  1
585  4510  1
586  4120  1
587  4430  1
588  4790  1
589  4430  1
590  4160  1
591  4360  1
592  4320  1
593  3790  1
594  4840  1
595  4460  1
596  4300  1
597  4520  1
598  4440  1
599  4530  1

