# Created by:        SpecsLab Prodigy, Version 4.25.3-r60155 
#
# XY-Serializer Export Settings:
#   Comment Prefix:           #
#   Output meta data:         yes
#   Energy Axis:              Binding Energy
#   Count Rate:               Counts per Second
#   Separate Scan Data:       no
#   Separate Channel Data:    no
#   External Channel Data:    yes
#   Transmission Function:    no
#   ErrorBar:                 no
#   Operation Results:        yes
#   Time Zone Format:         Local Time
#
# Group:             Spectrum Group
#
# Region:            S2p
# Acquisition Date:  10/26/17 00:44:00 UTC-2
# Analysis Method:   XPS
# Analyzer:          Phoibos
# Analyzer Lens:     MediumArea:1.5kV
# Analyzer Slit:     5:7x20\B:open
# Scan Mode:         FixedAnalyzerTransmission
# Curves/Scan:       1
# Values/Curve:      91
# Dwell Time:        0.5
# Excitation Energy: 523
# Binding Energy:    168
# Pass Energy:       30
# Bias Voltage:      -0.5
# Detector Voltage:  1400
# Eff. Workfunction: 4.434
# Source:            Monochromator
# Comment:           
# OrdinateRange:     [-14.731800, 14.731800]
#
# Cycle: 0
# Number of Scans: 2
#
# Cycle: 0, Curve: 0
#
# ColumnLabels: energy counts/s
#
168  11843.479
167.9  11748.082
167.8  11830.609
167.7  11766.881
167.6  11909.205
167.5  11989.193
167.4  12005.416
167.3  11881.351
167.2  11803.783
167.1  11690.275
167  11656.739
166.9  12021.177
166.8  11886.102
166.7  11940.51
166.6  12188.093
166.5  12064.116
166.4  11935.993
166.3  11650.668
166.2  12007.919
166.1  12011.705
166  12084.34
165.9  11964.339
165.8  12039.668
165.7  11853.388
165.6  11685.746
165.5  11924.398
165.4  11877.541
165.3  11948.868
165.2  11691.597
165.1  11843.275
165  11864.627
164.9  11728.514
164.8  11909.455
164.7  12019.67
164.6  11919.072
164.5  11919.09
164.4  11855.252
164.3  11717.312
164.2  11798.459
164.1  12160.933
164  12307.899
163.9  12629.132
163.8  12583.032
163.7  12932.214
163.6  12779.047
163.5  12867.85
163.4  12911.218
163.3  12669.324
163.2  12776.315
163.1  12632.846
163  12576.511
162.9  12681.215
162.8  12491.013
162.7  12568.49
162.6  13169.634
162.5  13359.556
162.4  13132.451
162.3  13221.76
162.2  13311.952
162.1  13146.163
162  13178.413
161.9  12871.739
161.8  12303.817
161.7  11855.561
161.6  11596.994
161.5  11592.738
161.4  11665.205
161.3  11423.733
161.2  11323.513
161.1  11485.568
161  11366.603
160.9  11350.585
160.8  11247.66
160.7  11326.655
160.6  11071.913
160.5  11495.631
160.4  11588.6
160.3  11279.843
160.2  11251.014
160.1  11307.222
160  11432.87
159.9  11240.17
159.8  11253.131
159.7  11433.036
159.6  11303.14
159.5  11281.074
159.4  11046.036
159.3  11183.261
159.2  11299.294
159.1  11296.364
159  11360.99

# Region:            C1s
# Acquisition Date:  10/26/17 00:47:44 UTC-2
# Analysis Method:   XPS
# Analyzer:          Phoibos
# Analyzer Lens:     MediumArea:1.5kV
# Analyzer Slit:     5:7x20\B:open
# Scan Mode:         FixedAnalyzerTransmission
# Curves/Scan:       1
# Values/Curve:      121
# Dwell Time:        0.5
# Excitation Energy: 523
# Binding Energy:    292
# Pass Energy:       30
# Bias Voltage:      -0.5
# Detector Voltage:  1400
# Eff. Workfunction: 4.434
# Source:            Monochromator
# Comment:           
# OrdinateRange:     [-14.731800, 14.731800]
#
# Cycle: 0
# Number of Scans: 2
#
# Cycle: 0, Curve: 0
#
# ColumnLabels: energy counts/s
#
292  12673.855
291.9  12816.286
291.8  12840.742
291.7  12625.629
291.6  12760.49
291.5  13100.461
291.4  12823.064
291.3  12906.217
291.2  13054.986
291.1  12852.144
291  12712.799
290.9  12866.434
290.8  12831.238
290.7  12818.079
290.6  13215.368
290.5  13221.898
290.4  12885.242
290.3  12918.51
290.2  12951.482
290.1  12971.663
290  13161.208
289.9  13121.636
289.8  12915.415
289.7  12960.533
289.6  12906.919
289.5  13192.06
289.4  13026.835
289.3  13301.814
289.2  13701.658
289.1  13504.308
289  13257.127
288.9  13415.324
288.8  13656.298
288.7  13642.413
288.6  13784.971
288.5  13872.831
288.4  14161.426
288.3  14167.996
288.2  14077.351
288.1  14204.965
288  14633.852
287.9  14662.958
287.8  14581.75
287.7  14912.34
287.6  15271.684
287.5  15603.218
287.4  15733.781
287.3  15967.275
287.2  16031.275
287.1  16636.953
287  17240.138
286.9  17221.569
286.8  17782.078
286.7  18347.49
286.6  18971.471
286.5  19571.659
286.4  20539.346
286.3  21656.14
286.2  23147.421
286.1  25477.186
286  28368.424
285.9  32477.207
285.8  37686.485
285.7  43614.552
285.6  50508.719
285.5  59247.82
285.4  67657.128
285.3  76378.341
285.2  83737.087
285.1  88407.155
285  90494.43
284.9  88077.151
284.8  82776.929
284.7  73734.089
284.6  63760.311
284.5  54044.128
284.4  44769.743
284.3  37094.87
284.2  30841.069
284.1  26608.891
284  23533.758
283.9  21090.323
283.8  19602.122
283.7  18306.788
283.6  17433.066
283.5  16756.825
283.4  16190.751
283.3  15645.793
283.2  15872.665
283.1  15258.147
283  15118.614
282.9  14755.061
282.8  14459.878
282.7  14723.359
282.6  14644.63
282.5  14239.186
282.4  14456.048
282.3  14004.181
282.2  13680.605
282.1  13865.231
282  13685.556
281.9  13703.785
281.8  13738.881
281.7  13865.422
281.6  13750.493
281.5  13831.155
281.4  13595.164
281.3  13601.813
281.2  13625.118
281.1  13352.782
281  13277.579
280.9  13380.266
280.8  13471.809
280.7  13649.298
280.6  13462.855
280.5  13142.961
280.4  13091.687
280.3  13132.447
280.2  13122.252
280.1  13231.935
280  13187.069

# Region:            Au4f
# Acquisition Date:  10/26/17 00:54:22 UTC-2
# Analysis Method:   XPS
# Analyzer:          Phoibos
# Analyzer Lens:     MediumArea:1.5kV
# Analyzer Slit:     5:7x20\B:open
# Scan Mode:         FixedAnalyzerTransmission
# Curves/Scan:       1
# Values/Curve:      241
# Dwell Time:        0.5
# Excitation Energy: 523
# Binding Energy:    92
# Pass Energy:       30
# Bias Voltage:      -0.5
# Detector Voltage:  1400
# Eff. Workfunction: 4.434
# Source:            Monochromator
# Comment:           
# OrdinateRange:     [-14.731800, 14.731800]
#
# Cycle: 0
# Number of Scans: 2
#
# Cycle: 0, Curve: 0
#
# ColumnLabels: energy counts/s
#
92  6727.9867
91.9  6545.4026
91.8  6411.4894
91.7  6469.6704
91.6  6624.154
91.5  6643.412
91.4  6873.999
91.3  6922.054
91.2  6910.9762
91.1  6782.2076
91  6872.5282
90.9  6940.736
90.8  7078.2229
90.7  7213.6727
90.6  7415.4656
90.5  7401.3985
90.4  7205.5677
90.3  7359.5032
90.2  7782.4642
90.1  7544.6766
90  7843.0941
89.9  8027.1462
89.8  8091.0253
89.7  8186.931
89.6  8542.6386
89.5  8437.2185
89.4  8767.6072
89.3  9280.5815
89.2  9500.5471
89.1  9945.0153
89  10395.814
88.9  11136.326
88.8  11689.018
88.7  12581.43
88.6  14524.093
88.5  16253.521
88.4  18741.525
88.3  21896.307
88.2  26137.925
88.1  30886.909
88  35131.387
87.9  38664.405
87.8  40368.393
87.7  39791.519
87.6  36227.732
87.5  31630.573
87.4  26572.947
87.3  21884.889
87.2  17559.65
87.1  14461.442
87  12380.72
86.9  11295.187
86.8  10139.909
86.7  9281.7516
86.6  8796.9852
86.5  8380.0201
86.4  8478.4705
86.3  8343.4641
86.2  8101.6316
86.1  8128.6518
86  8225.7192
85.9  8394.1925
85.8  8691.0697
85.7  8593.3013
85.6  8745.048
85.5  9409.6294
85.4  9747.8766
85.3  10416.81
85.2  10955.602
85.1  12275.853
85  13807.055
84.9  15763.387
84.8  18140.204
84.7  21755.565
84.6  26616.902
84.5  32734.288
84.4  39053.5
84.3  44808.616
84.2  48557.06
84.1  50048.126
84  47873.729
83.9  43227.222
83.8  36961.947
83.7  29467.093
83.6  22683.148
83.5  17377.838
83.4  13207.753
83.3  10464.1
83.2  8470.311
83.1  7451.5158
83  6383.3963
82.9  5648.5968
82.8  4985.0089
82.7  4496.6813
82.6  4226.5796
82.5  3856.2298
82.4  3586.7973
82.3  3230.6564
82.2  3074.3414
82.1  2823.8885
82  2645.3285
81.9  2561.192
81.8  2299.4305
81.7  2230.7187
81.6  2189.9603
81.5  2099.0366
81.4  1919.2708
81.3  1901.814
81.2  1940.9661
81.1  1751.1933
81  1708.2383
80.9  1753.8245
80.8  1738.5916
80.7  1783.4393
80.6  1792.4309
80.5  1603.2484
80.4  1643.2644
80.3  1693.6376
80.2  1633.3716
80.1  1613.6073
80  1590.0237
79.9  1560.2293
79.8  1448.4127
79.7  1386.3711
79.6  1630.1084
79.5  1450.2591
79.4  1519.7565
79.3  1489.8142
79.2  1531.9498
79.1  1673.9741
79  1653.0778
78.9  1555.4678
78.8  1779.4651
78.7  1757.1896
78.6  1843.0656
78.5  1848.1664
78.4  1718.1562
78.3  1742.1515
78.2  1639.7647
78.1  1683.3034
78  1662.8817
77.9  1611.2867
77.8  1743.6238
77.7  1772.945
77.6  1804.032
77.5  2034.1325
77.4  1995.9837
77.3  2088.3589
77.2  2147.1784
77.1  2181.9793
77  2263.8802
76.9  2082.102
76.8  2142.2598
76.7  2078.8265
76.6  2158.956
76.5  2264.9909
76.4  2280.7659
76.3  2382.9945
76.2  2261.6113
76.1  2339.6949
76  2591.1931
75.9  2494.1406
75.8  2677.1366
75.7  2902.2535
75.6  3212.3206
75.5  3238.923
75.4  3383.836
75.3  3592.7332
75.2  4113.8166
75.1  4515.8872
75  4792.0935
74.9  5341.4013
74.8  5718.1413
74.7  6034.9296
74.6  6542.4153
74.5  6860.1066
74.4  6967.2679
74.3  6660.7191
74.2  6208.0019
74.1  5501.6908
74  4655.1611
73.9  3953.1854
73.8  3346.0041
73.7  2853.9896
73.6  2576.1175
73.5  2424.4956
73.4  2260.3523
73.3  2103.1736
73.2  2103.4239
73.1  1954.4442
73  1944.3254
72.9  1989.7404
72.8  2071.8071
72.7  2317.1545
72.6  2071.4963
72.5  2400.9179
72.4  2495.6515
72.3  2745.4833
72.2  2948.6122
72.1  3134.8143
72  3359.5075
71.9  3766.4507
71.8  4125.3565
71.7  4529.9639
71.6  5053.0899
71.5  5629.0374
71.4  6156.6247
71.3  6342.549
71.2  6710.3912
71.1  7220.3084
71  6851.3098
70.9  6250.7077
70.8  5276.0242
70.7  4358.7169
70.6  3331.4161
70.5  2373.0022
70.4  1411.1818
70.3  916.31277
70.2  620.99861
70.1  341.93852
70  156.94472
69.9  144.02951
69.8  -74.970673
69.7  -314.98975
69.6  -288.29484
69.5  -308.9298
69.4  -386.32001
69.3  -413.12049
69.2  -435.34015
69.1  -532.92227
69  -554.39845
68.9  -553.78657
68.8  -570.94549
68.7  -645.97663
68.6  -660.12381
68.5  -701.78998
68.4  -645.39736
68.3  -654.14045
68.2  -574.62376
68.1  -473.12337
68  -509.92744

# Region:            S2p (2)
# Acquisition Date:  10/26/17 00:57:51 UTC-2
# Analysis Method:   XPS
# Analyzer:          Phoibos
# Analyzer Lens:     MediumArea:1.5kV
# Analyzer Slit:     5:7x20\B:open
# Scan Mode:         FixedAnalyzerTransmission
# Curves/Scan:       1
# Values/Curve:      91
# Dwell Time:        0.5
# Excitation Energy: 523
# Binding Energy:    168
# Pass Energy:       30
# Bias Voltage:      -0.5
# Detector Voltage:  1400
# Eff. Workfunction: 4.434
# Source:            Monochromator
# Comment:           
# OrdinateRange:     [-14.731800, 14.731800]
#
# Cycle: 0
# Number of Scans: 2
#
# Cycle: 0, Curve: 0
#
# ColumnLabels: energy counts/s
#
168  11462.361
167.9  11361.575
167.8  11300.332
167.7  11335.697
167.6  11191.777
167.5  11058.981
167.4  11220.096
167.3  11145.342
167.2  11184.286
167.1  11226.421
167  11378.358
166.9  11133.65
166.8  11290.012
166.7  11222.769
166.6  11247.858
166.5  11235.922
166.4  11103.575
166.3  11208.975
166.2  11117.889
166.1  11341.406
166  11296.126
165.9  11146.813
165.8  10841.875
165.7  10980.233
165.6  11244.199
165.5  11226.048
165.4  11208.979
165.3  11336.947
165.2  11319.974
165.1  11357.229
165  11453.248
164.9  11558.555
164.8  11502.181
164.7  11681.05
164.6  11690.245
164.5  11697.043
164.4  11849.323
164.3  11535.246
164.2  11668.043
164.1  11549.155
164  11902.779
163.9  12007.074
163.8  12303.203
163.7  12557.273
163.6  12682.459
163.5  12874.39
163.4  12543.202
163.3  12331.384
163.2  12255.117
163.1  12246.372
163  12143.335
162.9  12219.383
162.8  12217.694
162.7  12340.306
162.6  12269.343
162.5  12715.844
162.4  12900.583
162.3  12998.835
162.2  13074.369
162.1  12854.734
162  12676.606
161.9  12435.118
161.8  12032.235
161.7  11841.295
161.6  11506.799
161.5  11136.737
161.4  11207.204
161.3  11311.375
161.2  11072.372
161.1  11240.725
161  11022.611
160.9  11107.659
160.8  11325.285
160.7  11359.155
160.6  11465.304
160.5  11480.793
160.4  11366.012
160.3  11434.721
160.2  11418.929
160.1  11657.228
160  11442.019
159.9  11208.217
159.8  11276.383
159.7  11180.415
159.6  11192.514
159.5  11682.871
159.4  11600.677
159.3  11418.223
159.2  11287.66
159.1  11223.611
159  11193.465

# Region:            C1s (2)
# Acquisition Date:  10/26/17 01:01:36 UTC-2
# Analysis Method:   XPS
# Analyzer:          Phoibos
# Analyzer Lens:     MediumArea:1.5kV
# Analyzer Slit:     5:7x20\B:open
# Scan Mode:         FixedAnalyzerTransmission
# Curves/Scan:       1
# Values/Curve:      121
# Dwell Time:        0.5
# Excitation Energy: 523
# Binding Energy:    292
# Pass Energy:       30
# Bias Voltage:      -0.5
# Detector Voltage:  1400
# Eff. Workfunction: 4.434
# Source:            Monochromator
# Comment:           
# OrdinateRange:     [-14.731800, 14.731800]
#
# Cycle: 0
# Number of Scans: 2
#
# Cycle: 0, Curve: 0
#
# ColumnLabels: energy counts/s
#
292  12780.779
291.9  12946.594
291.8  12789.737
291.7  12590.598
291.6  12802.411
291.5  12613.692
291.4  12633.199
291.3  12598.021
291.2  12678.143
291.1  12449.462
291  12208.782
290.9  12119.657
290.8  12427.569
290.7  12746.474
290.6  12798.071
290.5  12896.595
290.4  12831.746
290.3  12767.218
290.2  12839.657
290.1  12780.789
290  13209.578
289.9  13007.306
289.8  12791.119
289.7  12847.561
289.6  12946.717
289.5  13183.021
289.4  13213.321
289.3  13127.253
289.2  12972.557
289.1  13105.754
289  13599.483
288.9  13198.699
288.8  13192.083
288.7  13515.777
288.6  13492.23
288.5  13567.153
288.4  13572.011
288.3  13645.567
288.2  13634.712
288.1  14031.593
288  13918.934
287.9  14412.652
287.8  14467.139
287.7  14553.323
287.6  14773.854
287.5  15092.635
287.4  15375.062
287.3  15953.37
287.2  16178.319
287.1  16443.262
287  16369.448
286.9  17019.745
286.8  17694.947
286.7  18196.67
286.6  18490.566
286.5  19111.574
286.4  20247.945
286.3  21686.784
286.2  22813.331
286.1  25146.606
286  27685.093
285.9  31759.242
285.8  36334.044
285.7  42199.991
285.6  49251.458
285.5  57094.083
285.4  65673.367
285.3  73599.656
285.2  80879.743
285.1  85656.653
285  87807.809
284.9  85816.305
284.8  81256.492
284.7  72616.44
284.6  62463.376
284.5  52778.602
284.4  43716.587
284.3  36341.503
284.2  30225.787
284.1  26034.109
284  22727.32
283.9  20649.576
283.8  18857.741
283.7  17708.009
283.6  16767.666
283.5  16384.916
283.4  15543.218
283.3  15052.586
283.2  14828.97
283.1  14666.07
283  14176.274
282.9  14027.638
282.8  14013.488
282.7  13827.476
282.6  13954.089
282.5  13957.423
282.4  13654.069
282.3  13498.076
282.2  13254.767
282.1  13410.149
282  13366.419
281.9  13130.14
281.8  13168.298
281.7  13113.334
281.6  12900.326
281.5  13108.408
281.4  13193.024
281.3  13303.474
281.2  13147.3
281.1  13134.076
281  13273.386
280.9  13195.923
280.8  13072.701
280.7  13095.233
280.6  13161.971
280.5  13285.547
280.4  13240.141
280.3  12912.926
280.2  12689.262
280.1  13046.196
280  12982.806

# Region:            S2p (3)
# Acquisition Date:  10/26/17 01:35:54 UTC-2
# Analysis Method:   XPS
# Analyzer:          Phoibos
# Analyzer Lens:     MediumArea:1.5kV
# Analyzer Slit:     5:7x20\B:open
# Scan Mode:         FixedAnalyzerTransmission
# Curves/Scan:       1
# Values/Curve:      91
# Dwell Time:        0.5
# Excitation Energy: 523
# Binding Energy:    168
# Pass Energy:       30
# Bias Voltage:      -0.5
# Detector Voltage:  1400
# Eff. Workfunction: 4.434
# Source:            Monochromator
# Comment:           
# OrdinateRange:     [-14.731800, 14.731800]
#
# Cycle: 0
# Number of Scans: 2
#
# Cycle: 0, Curve: 0
#
# ColumnLabels: energy counts/s
#
168  11229.056
167.9  11297.34
167.8  11248.038
167.7  11012.609
167.6  11082.733
167.5  11076.106
167.4  10959.941
167.3  11142.916
167.2  11181.262
167.1  11300.3
167  11011.883
166.9  11276.366
166.8  11094.563
166.7  10876.098
166.6  10996.985
166.5  11057.001
166.4  11055.038
166.3  11271.584
166.2  11095.751
166.1  10984.779
166  11042.39
165.9  11044.761
165.8  11054.253
165.7  10802.532
165.6  11068.408
165.5  11217.031
165.4  11036.722
165.3  11130.663
165.2  11812.343
165.1  11679.799
165  11360.917
164.9  11592.539
164.8  11592.689
164.7  11743.98
164.6  11748.853
164.5  11768.782
164.4  11902.712
164.3  11884.222
164.2  11931.429
164.1  11972.725
164  11926.794
163.9  12087.189
163.8  12088.046
163.7  12376.751
163.6  12488.541
163.5  12924.694
163.4  12901.043
163.3  12804.246
163.2  12796.919
163.1  12486.628
163  12240.172
162.9  12306.587
162.8  12385.78
162.7  12682.588
162.6  12528.994
162.5  12839.455
162.4  13054.119
162.3  13456.838
162.2  13464.111
162.1  13120.441
162  12736.325
161.9  12329.952
161.8  12246.968
161.7  12168.758
161.6  12249.32
161.5  11697.064
161.4  11627.772
161.3  11652.107
161.2  11666.615
161.1  11597.44
161  11389.312
160.9  11218.586
160.8  11207.189
160.7  11091.504
160.6  11083.57
160.5  10866.683
160.4  10976.773
160.3  11020.117
160.2  10832.141
160.1  10923.746
160  10870.996
159.9  10858.084
159.8  10937.93
159.7  11063.681
159.6  10906.064
159.5  11177.975
159.4  11201.691
159.3  10656.309
159.2  11014.199
159.1  11048.033
159  10765.162

# Region:            C1s (3)
# Acquisition Date:  10/26/17 01:21:18 UTC-2
# Analysis Method:   XPS
# Analyzer:          Phoibos
# Analyzer Lens:     MediumArea:1.5kV
# Analyzer Slit:     5:7x20\B:open
# Scan Mode:         FixedAnalyzerTransmission
# Curves/Scan:       1
# Values/Curve:      121
# Dwell Time:        0.5
# Excitation Energy: 523
# Binding Energy:    292
# Pass Energy:       30
# Bias Voltage:      -0.5
# Detector Voltage:  1400
# Eff. Workfunction: 4.434
# Source:            Monochromator
# Comment:           
# OrdinateRange:     [-14.731800, 14.731800]
#
# Cycle: 0
# Number of Scans: 2
#
# Cycle: 0, Curve: 0
#
# ColumnLabels: energy counts/s
#
292  13131.639
291.9  12956.728
291.8  12833.078
291.7  12938.495
291.6  12942.953
291.5  13025.065
291.4  12764.101
291.3  12840.043
291.2  13164.358
291.1  13098.442
291  12826.034
290.9  12653.126
290.8  12978.379
290.7  13097.334
290.6  12842.898
290.5  12697.326
290.4  12721.292
290.3  12737.269
290.2  12773.251
290.1  12882.546
290  13114.396
289.9  13054.044
289.8  13230.303
289.7  13158.816
289.6  13141.989
289.5  13149.204
289.4  12957.63
289.3  12863.464
289.2  13386.314
289.1  13366.613
289  13507.747
288.9  13518.093
288.8  13616.311
288.7  13185.293
288.6  13642.131
288.5  13500.976
288.4  13488.416
288.3  13769.467
288.2  13998.335
288.1  13883.064
288  14142.546
287.9  13935.61
287.8  14353.837
287.7  14499.025
287.6  14799.111
287.5  14999.208
287.4  15353.986
287.3  15800.621
287.2  15886.135
287.1  16112.177
287  16322.32
286.9  16709.882
286.8  17008.084
286.7  17457.782
286.6  18219.431
286.5  19020.952
286.4  20118.402
286.3  21123.116
286.2  22816.276
286.1  25009.927
286  27938.02
285.9  31672.121
285.8  36134.182
285.7  42479.759
285.6  49157.228
285.5  56955.867
285.4  65094.387
285.3  73749.259
285.2  80873.76
285.1  84950.524
285  86466.177
284.9  84243.921
284.8  78847.727
284.7  71238.491
284.6  61982.402
284.5  51832.47
284.4  43030.772
284.3  35445.86
284.2  30222.225
284.1  25818.723
284  22860.61
283.9  20672.747
283.8  19016.494
283.7  17611.316
283.6  16657.032
283.5  16153.436
283.4  15527.225
283.3  14947.67
283.2  14941.644
283.1  14849.802
283  14206.622
282.9  14035.114
282.8  13831.494
282.7  13857.605
282.6  13777.271
282.5  13667.397
282.4  13580.321
282.3  13618.285
282.2  13498.256
282.1  13342.397
282  13356.966
281.9  13514.932
281.8  13210.852
281.7  13241.223
281.6  13228.269
281.5  13020.233
281.4  13020.74
281.3  13204.372
281.2  13213.253
281.1  13059.279
281  13047.502
280.9  13159.082
280.8  12763.524
280.7  12715.704
280.6  12685.379
280.5  12780.155
280.4  12687.136
280.3  12732.523
280.2  12746.112
280.1  12641.649
280  12775.4

